2019-08-06 14:06:39.000000,-0.0
2019-08-06 14:06:39.015625,-0.0
2019-08-06 14:06:39.031250,-0.0
2019-08-06 14:06:39.046875,-0.0
2019-08-06 14:06:39.062500,-0.0
2019-08-06 14:06:39.078125,-0.0
2019-08-06 14:06:39.093750,-0.0
2019-08-06 14:06:39.109375,-0.0
2019-08-06 14:06:39.125000,-0.0
2019-08-06 14:06:39.140625,-0.0
2019-08-06 14:06:39.156250,0.0
2019-08-06 14:06:39.171875,0.01
2019-08-06 14:06:39.187500,0.01
2019-08-06 14:06:39.203125,-0.0
2019-08-06 14:06:39.218750,-0.03
2019-08-06 14:06:39.234375,-0.05
2019-08-06 14:06:39.250000,-0.05
2019-08-06 14:06:39.265625,0.0
2019-08-06 14:06:39.281250,0.13
2019-08-06 14:06:39.296875,0.36
2019-08-06 14:06:39.312500,0.66
2019-08-06 14:06:39.328125,1.01
2019-08-06 14:06:39.343750,1.37
2019-08-06 14:06:39.359375,1.72
2019-08-06 14:06:39.375000,2.06
2019-08-06 14:06:39.390625,2.4
2019-08-06 14:06:39.406250,2.79
2019-08-06 14:06:39.421875,3.24
2019-08-06 14:06:39.437500,3.8
2019-08-06 14:06:39.453125,4.43
2019-08-06 14:06:39.468750,5.08
2019-08-06 14:06:39.484375,5.7
2019-08-06 14:06:39.500000,6.27
2019-08-06 14:06:39.515625,6.81
2019-08-06 14:06:39.531250,7.37
2019-08-06 14:06:39.546875,8.03
2019-08-06 14:06:39.562500,8.85
2019-08-06 14:06:39.578125,9.93
2019-08-06 14:06:39.593750,11.18
2019-08-06 14:06:39.609375,12.49
2019-08-06 14:06:39.625000,13.75
2019-08-06 14:06:39.640625,14.9
2019-08-06 14:06:39.656250,15.99
2019-08-06 14:06:39.671875,17.18
2019-08-06 14:06:39.687500,18.67
2019-08-06 14:06:39.703125,20.62
2019-08-06 14:06:39.718750,23.24
2019-08-06 14:06:39.734375,26.34
2019-08-06 14:06:39.750000,29.64
2019-08-06 14:06:39.765625,32.85
2019-08-06 14:06:39.781250,35.82
2019-08-06 14:06:39.796875,38.62
2019-08-06 14:06:39.812500,41.57
2019-08-06 14:06:39.828125,45.12
2019-08-06 14:06:39.843750,49.58
2019-08-06 14:06:39.859375,55.34
2019-08-06 14:06:39.875000,62.05
2019-08-06 14:06:39.890625,69.19
2019-08-06 14:06:39.906250,76.19
2019-08-06 14:06:39.921875,82.71
2019-08-06 14:06:39.937500,88.85
2019-08-06 14:06:39.953125,95.11
2019-08-06 14:06:39.968750,102.25
2019-08-06 14:06:39.984375,110.81
2019-08-06 14:06:40.000000,121.35
2019-08-06 14:06:40.015625,133.38
2019-08-06 14:06:40.031250,146.09
2019-08-06 14:06:40.046875,158.6
2019-08-06 14:06:40.062500,170.37
2019-08-06 14:06:40.078125,181.46
2019-08-06 14:06:40.093750,192.51
2019-08-06 14:06:40.109375,204.89
2019-08-06 14:06:40.125000,217.33
2019-08-06 14:06:40.140625,232.08
2019-08-06 14:06:40.156250,249.74
2019-08-06 14:06:40.171875,270.38
2019-08-06 14:06:40.187500,292.78
2019-08-06 14:06:40.203125,314.03
2019-08-06 14:06:40.218750,329.83
2019-08-06 14:06:40.234375,335.56
2019-08-06 14:06:40.250000,327.88
2019-08-06 14:06:40.265625,305.95
2019-08-06 14:06:40.281250,272.14
2019-08-06 14:06:40.296875,230.28
2019-08-06 14:06:40.312500,184.63
2019-08-06 14:06:40.328125,138.39
2019-08-06 14:06:40.343750,93.08
2019-08-06 14:06:40.359375,48.94
2019-08-06 14:06:40.375000,5.87
2019-08-06 14:06:40.390625,-35.89
2019-08-06 14:06:40.406250,-75.61
2019-08-06 14:06:40.421875,-112.09
2019-08-06 14:06:40.437500,-144.84
2019-08-06 14:06:40.453125,-174.12
2019-08-06 14:06:40.468750,-200.6
2019-08-06 14:06:40.484375,-225.0
2019-08-06 14:06:40.500000,-247.64
2019-08-06 14:06:40.515625,-268.39
2019-08-06 14:06:40.531250,-286.85
2019-08-06 14:06:40.546875,-302.86
2019-08-06 14:06:40.562500,-316.48
2019-08-06 14:06:40.578125,-328.53
2019-08-06 14:06:40.593750,-340.04
2019-08-06 14:06:40.609375,-351.97
2019-08-06 14:06:40.625000,-364.88
2019-08-06 14:06:40.640625,-378.45
2019-08-06 14:06:40.656250,-391.69
2019-08-06 14:06:40.671875,-403.43
2019-08-06 14:06:40.687500,-412.67
2019-08-06 14:06:40.703125,-418.78
2019-08-06 14:06:40.718750,-421.73
2019-08-06 14:06:40.734375,-421.88
2019-08-06 14:06:40.750000,-419.73
2019-08-06 14:06:40.765625,-415.73
2019-08-06 14:06:40.781250,-410.16
2019-08-06 14:06:40.796875,-402.2
2019-08-06 14:06:40.812500,-390.98
2019-08-06 14:06:40.828125,-375.7
2019-08-06 14:06:40.843750,-355.81
2019-08-06 14:06:40.859375,-331.2
2019-08-06 14:06:40.875000,-302.05
2019-08-06 14:06:40.890625,-268.86
2019-08-06 14:06:40.906250,-232.32
2019-08-06 14:06:40.921875,-194.85
2019-08-06 14:06:40.937500,-158.37
2019-08-06 14:06:40.953125,-124.49
2019-08-06 14:06:40.968750,-94.32
2019-08-06 14:06:40.984375,-68.63
2019-08-06 14:06:41.000000,-47.71
2019-08-06 14:06:41.015625,-31.4
2019-08-06 14:06:41.031250,-19.16
2019-08-06 14:06:41.046875,-9.34
2019-08-06 14:06:41.062500,-0.41
2019-08-06 14:06:41.078125,9.37
2019-08-06 14:06:41.093750,21.44
2019-08-06 14:06:41.109375,37.74
2019-08-06 14:06:41.125000,59.57
2019-08-06 14:06:41.140625,87.63
2019-08-06 14:06:41.156250,122.11
2019-08-06 14:06:41.171875,162.64
2019-08-06 14:06:41.187500,208.33
2019-08-06 14:06:41.203125,257.74
2019-08-06 14:06:41.218750,309.19
2019-08-06 14:06:41.234375,360.71
2019-08-06 14:06:41.250000,410.25
2019-08-06 14:06:41.265625,455.69
2019-08-06 14:06:41.281250,494.98
2019-08-06 14:06:41.296875,526.41
2019-08-06 14:06:41.312500,548.73
2019-08-06 14:06:41.328125,561.04
2019-08-06 14:06:41.343750,563.19
2019-08-06 14:06:41.359375,555.59
2019-08-06 14:06:41.375000,538.93
2019-08-06 14:06:41.390625,514.05
2019-08-06 14:06:41.406250,481.79
2019-08-06 14:06:41.421875,442.92
2019-08-06 14:06:41.437500,398.28
2019-08-06 14:06:41.453125,348.76
2019-08-06 14:06:41.468750,295.33
2019-08-06 14:06:41.484375,239.0
2019-08-06 14:06:41.500000,180.92
2019-08-06 14:06:41.515625,122.23
2019-08-06 14:06:41.531250,64.02
2019-08-06 14:06:41.546875,8.33
2019-08-06 14:06:41.562500,-43.25
2019-08-06 14:06:41.578125,-89.51
2019-08-06 14:06:41.593750,-129.58
2019-08-06 14:06:41.609375,-162.97
2019-08-06 14:06:41.625000,-189.55
2019-08-06 14:06:41.640625,-209.52
2019-08-06 14:06:41.656250,-223.27
2019-08-06 14:06:41.671875,-231.37
2019-08-06 14:06:41.687500,-234.55
2019-08-06 14:06:41.703125,-233.8
2019-08-06 14:06:41.718750,-230.12
2019-08-06 14:06:41.734375,-224.48
2019-08-06 14:06:41.750000,-217.68
2019-08-06 14:06:41.765625,-210.19
2019-08-06 14:06:41.781250,-202.12
2019-08-06 14:06:41.796875,-193.39
2019-08-06 14:06:41.812500,-183.84
2019-08-06 14:06:41.828125,-173.5
2019-08-06 14:06:41.843750,-162.82
2019-08-06 14:06:41.859375,-152.57
2019-08-06 14:06:41.875000,-143.61
2019-08-06 14:06:41.890625,-136.67
2019-08-06 14:06:41.906250,-132.03
2019-08-06 14:06:41.921875,-129.5
2019-08-06 14:06:41.937500,-128.42
2019-08-06 14:06:41.953125,-127.95
2019-08-06 14:06:41.968750,-127.49
2019-08-06 14:06:41.984375,-126.95
2019-08-06 14:06:42.000000,-126.85
2019-08-06 14:06:42.015625,-127.98
2019-08-06 14:06:42.031250,-131.11
2019-08-06 14:06:42.046875,-136.48
2019-08-06 14:06:42.062500,-143.72
2019-08-06 14:06:42.078125,-151.91
2019-08-06 14:06:42.093750,-159.91
2019-08-06 14:06:42.109375,-166.91
2019-08-06 14:06:42.125000,-172.78
2019-08-06 14:06:42.140625,-178.28
2019-08-06 14:06:42.156250,-184.91
2019-08-06 14:06:42.171875,-194.67
2019-08-06 14:06:42.187500,-209.52
2019-08-06 14:06:42.203125,-230.52
2019-08-06 14:06:42.218750,-256.95
2019-08-06 14:06:42.234375,-285.85
2019-08-06 14:06:42.250000,-312.5
2019-08-06 14:06:42.265625,-331.71
2019-08-06 14:06:42.281250,-339.53
2019-08-06 14:06:42.296875,-334.53
2019-08-06 14:06:42.312500,-318.08
2019-08-06 14:06:42.328125,-293.51
2019-08-06 14:06:42.343750,-264.69
2019-08-06 14:06:42.359375,-234.81
2019-08-06 14:06:42.375000,-205.83
2019-08-06 14:06:42.390625,-178.53
2019-08-06 14:06:42.406250,-152.85
2019-08-06 14:06:42.421875,-128.26
2019-08-06 14:06:42.437500,-104.02
2019-08-06 14:06:42.453125,-79.48
2019-08-06 14:06:42.468750,-54.55
2019-08-06 14:06:42.484375,-30.08
2019-08-06 14:06:42.500000,-7.63
2019-08-06 14:06:42.515625,11.04
2019-08-06 14:06:42.531250,24.93
2019-08-06 14:06:42.546875,34.48
2019-08-06 14:06:42.562500,41.29
2019-08-06 14:06:42.578125,47.28
2019-08-06 14:06:42.593750,53.7
2019-08-06 14:06:42.609375,60.53
2019-08-06 14:06:42.625000,66.78
2019-08-06 14:06:42.640625,71.36
2019-08-06 14:06:42.656250,73.99
2019-08-06 14:06:42.671875,75.64
2019-08-06 14:06:42.687500,78.29
2019-08-06 14:06:42.703125,83.81
2019-08-06 14:06:42.718750,92.82
2019-08-06 14:06:42.734375,103.87
2019-08-06 14:06:42.750000,113.63
2019-08-06 14:06:42.765625,118.27
2019-08-06 14:06:42.781250,115.63
2019-08-06 14:06:42.796875,107.18
2019-08-06 14:06:42.812500,98.39
2019-08-06 14:06:42.828125,96.78
2019-08-06 14:06:42.843750,108.39
2019-08-06 14:06:42.859375,134.6
2019-08-06 14:06:42.875000,170.83
2019-08-06 14:06:42.890625,208.18
2019-08-06 14:06:42.906250,237.23
2019-08-06 14:06:42.921875,251.47
2019-08-06 14:06:42.937500,248.9
2019-08-06 14:06:42.953125,230.99
2019-08-06 14:06:42.968750,200.52
2019-08-06 14:06:42.984375,160.05
2019-08-06 14:06:43.000000,111.89
2019-08-06 14:06:43.015625,59.35
2019-08-06 14:06:43.031250,7.46
2019-08-06 14:06:43.046875,-37.81
2019-08-06 14:06:43.062500,-71.63
2019-08-06 14:06:43.078125,-92.49
2019-08-06 14:06:43.093750,-102.84
2019-08-06 14:06:43.109375,-107.71
2019-08-06 14:06:43.125000,-112.14
2019-08-06 14:06:43.140625,-119.08
2019-08-06 14:06:43.156250,-128.69
2019-08-06 14:06:43.171875,-139.36
2019-08-06 14:06:43.187500,-148.94
2019-08-06 14:06:43.203125,-155.69
2019-08-06 14:06:43.218750,-158.33
2019-08-06 14:06:43.234375,-155.52
2019-08-06 14:06:43.250000,-145.69
2019-08-06 14:06:43.265625,-127.26
2019-08-06 14:06:43.281250,-99.19
2019-08-06 14:06:43.296875,-61.42
2019-08-06 14:06:43.312500,-14.9
2019-08-06 14:06:43.328125,38.34
2019-08-06 14:06:43.343750,94.8
2019-08-06 14:06:43.359375,149.54
2019-08-06 14:06:43.375000,196.6
2019-08-06 14:06:43.390625,230.5
2019-08-06 14:06:43.406250,248.28
2019-08-06 14:06:43.421875,251.06
2019-08-06 14:06:43.437500,243.98
2019-08-06 14:06:43.453125,234.3
2019-08-06 14:06:43.468750,228.11
2019-08-06 14:06:43.484375,227.79
2019-08-06 14:06:43.500000,231.4
2019-08-06 14:06:43.515625,234.35
2019-08-06 14:06:43.531250,232.33
2019-08-06 14:06:43.546875,223.85
2019-08-06 14:06:43.562500,210.75
2019-08-06 14:06:43.578125,196.85
2019-08-06 14:06:43.593750,185.44
2019-08-06 14:06:43.609375,177.38
2019-08-06 14:06:43.625000,170.95
2019-08-06 14:06:43.640625,163.17
2019-08-06 14:06:43.656250,151.96
2019-08-06 14:06:43.671875,137.53
2019-08-06 14:06:43.687500,122.45
2019-08-06 14:06:43.703125,110.24
2019-08-06 14:06:43.718750,103.19
2019-08-06 14:06:43.734375,101.03
2019-08-06 14:06:43.750000,100.86
2019-08-06 14:06:43.765625,98.67
2019-08-06 14:06:43.781250,91.61
2019-08-06 14:06:43.796875,79.47
2019-08-06 14:06:43.812500,64.88
2019-08-06 14:06:43.828125,51.71
2019-08-06 14:06:43.843750,42.92
2019-08-06 14:06:43.859375,38.82
2019-08-06 14:06:43.875000,36.97
2019-08-06 14:06:43.890625,33.69
2019-08-06 14:06:43.906250,26.27
2019-08-06 14:06:43.921875,14.65
2019-08-06 14:06:43.937500,1.59
2019-08-06 14:06:43.953125,-8.67
2019-08-06 14:06:43.968750,-12.7
2019-08-06 14:06:43.984375,-9.61
2019-08-06 14:06:44.000000,-1.6
2019-08-06 14:06:44.015625,7.28
2019-08-06 14:06:44.031250,13.16
2019-08-06 14:06:44.046875,14.24
2019-08-06 14:06:44.062500,11.36
2019-08-06 14:06:44.078125,7.25
2019-08-06 14:06:44.093750,4.71
2019-08-06 14:06:44.109375,5.01
2019-08-06 14:06:44.125000,7.16
2019-08-06 14:06:44.140625,8.76
2019-08-06 14:06:44.156250,7.59
2019-08-06 14:06:44.171875,3.08
2019-08-06 14:06:44.187500,-3.15
2019-08-06 14:06:44.203125,-8.25
2019-08-06 14:06:44.218750,-9.75
2019-08-06 14:06:44.234375,-7.05
2019-08-06 14:06:44.250000,-1.86
2019-08-06 14:06:44.265625,2.66
2019-08-06 14:06:44.281250,3.73
2019-08-06 14:06:44.296875,0.42
2019-08-06 14:06:44.312500,-5.85
2019-08-06 14:06:44.328125,-12.19
2019-08-06 14:06:44.343750,-15.94
2019-08-06 14:06:44.359375,-16.17
2019-08-06 14:06:44.375000,-14.16
2019-08-06 14:06:44.390625,-12.45
2019-08-06 14:06:44.406250,-13.28
2019-08-06 14:06:44.421875,-17.13
2019-08-06 14:06:44.437500,-22.41
2019-08-06 14:06:44.453125,-26.39
2019-08-06 14:06:44.468750,-26.87
2019-08-06 14:06:44.484375,-23.51
2019-08-06 14:06:44.500000,-18.14
2019-08-06 14:06:44.515625,-13.79
2019-08-06 14:06:44.531250,-12.97
2019-08-06 14:06:44.546875,-16.3
2019-08-06 14:06:44.562500,-22.12
2019-08-06 14:06:44.578125,-27.4
2019-08-06 14:06:44.593750,-29.47
2019-08-06 14:06:44.609375,-27.36
2019-08-06 14:06:44.625000,-22.4
2019-08-06 14:06:44.640625,-17.42
2019-08-06 14:06:44.656250,-15.18
2019-08-06 14:06:44.671875,-16.88
2019-08-06 14:06:44.687500,-21.53
2019-08-06 14:06:44.703125,-26.54
2019-08-06 14:06:44.718750,-29.08
2019-08-06 14:06:44.734375,-27.56
2019-08-06 14:06:44.750000,-22.15
2019-08-06 14:06:44.765625,-14.62
2019-08-06 14:06:44.781250,-7.17
2019-08-06 14:06:44.796875,-1.34
2019-08-06 14:06:44.812500,2.59
2019-08-06 14:06:44.828125,5.42
2019-08-06 14:06:44.843750,8.29
2019-08-06 14:06:44.859375,11.86
2019-08-06 14:06:44.875000,15.88
2019-08-06 14:06:44.890625,19.21
2019-08-06 14:06:44.906250,20.51
2019-08-06 14:06:44.921875,18.95
2019-08-06 14:06:44.937500,14.61
2019-08-06 14:06:44.953125,8.58
2019-08-06 14:06:44.968750,2.17
2019-08-06 14:06:44.984375,-3.96
2019-08-06 14:06:45.000000,-10.27
2019-08-06 14:06:45.015625,-18.12
2019-08-06 14:06:45.031250,-28.51
2019-08-06 14:06:45.046875,-40.68
2019-08-06 14:06:45.062500,-51.58
2019-08-06 14:06:45.078125,-56.78
2019-08-06 14:06:45.093750,-52.68
2019-08-06 14:06:45.109375,-38.75
2019-08-06 14:06:45.125000,-18.63
2019-08-06 14:06:45.140625,1.22
2019-08-06 14:06:45.156250,14.33
2019-08-06 14:06:45.171875,17.44
2019-08-06 14:06:45.187500,12.26
2019-08-06 14:06:45.203125,4.94
2019-08-06 14:06:45.218750,3.27
2019-08-06 14:06:45.234375,13.12
2019-08-06 14:06:45.250000,35.54
2019-08-06 14:06:45.265625,66.07
2019-08-06 14:06:45.281250,96.6
2019-08-06 14:06:45.296875,118.76
2019-08-06 14:06:45.312500,127.54
2019-08-06 14:06:45.328125,123.01
2019-08-06 14:06:45.343750,109.9
2019-08-06 14:06:45.359375,94.9
2019-08-06 14:06:45.375000,83.58
2019-08-06 14:06:45.390625,78.06
2019-08-06 14:06:45.406250,77.18
2019-08-06 14:06:45.421875,78.33
2019-08-06 14:06:45.437500,79.78
2019-08-06 14:06:45.453125,81.86
2019-08-06 14:06:45.468750,85.87
2019-08-06 14:06:45.484375,92.04
2019-08-06 14:06:45.500000,97.97
2019-08-06 14:06:45.515625,99.24
2019-08-06 14:06:45.531250,91.49
2019-08-06 14:06:45.546875,72.95
2019-08-06 14:06:45.562500,45.83
2019-08-06 14:06:45.578125,15.4
2019-08-06 14:06:45.593750,-12.41
2019-08-06 14:06:45.609375,-33.39
2019-08-06 14:06:45.625000,-46.45
2019-08-06 14:06:45.640625,-52.87
2019-08-06 14:06:45.656250,-54.26
2019-08-06 14:06:45.671875,-51.46
2019-08-06 14:06:45.687500,-44.19
2019-08-06 14:06:45.703125,-31.98
2019-08-06 14:06:45.718750,-15.52
2019-08-06 14:06:45.734375,2.79
2019-08-06 14:06:45.750000,19.17
2019-08-06 14:06:45.765625,30.16
2019-08-06 14:06:45.781250,34.52
2019-08-06 14:06:45.796875,34.89
2019-08-06 14:06:45.812500,37.09
2019-08-06 14:06:45.828125,47.78
2019-08-06 14:06:45.843750,71.6
2019-08-06 14:06:45.859375,108.97
2019-08-06 14:06:45.875000,155.95
2019-08-06 14:06:45.890625,206.33
2019-08-06 14:06:45.906250,254.87
2019-08-06 14:06:45.921875,296.15
2019-08-06 14:06:45.937500,328.69
2019-08-06 14:06:45.953125,353.33
2019-08-06 14:06:45.968750,370.54
2019-08-06 14:06:45.984375,378.75
2019-08-06 14:06:46.000000,374.42
2019-08-06 14:06:46.015625,354.07
2019-08-06 14:06:46.031250,316.91
2019-08-06 14:06:46.046875,266.08
2019-08-06 14:06:46.062500,208.01
2019-08-06 14:06:46.078125,150.17
2019-08-06 14:06:46.093750,98.42
2019-08-06 14:06:46.109375,55.04
2019-08-06 14:06:46.125000,18.68
2019-08-06 14:06:46.140625,-14.14
2019-08-06 14:06:46.156250,-47.09
2019-08-06 14:06:46.171875,-82.88
2019-08-06 14:06:46.187500,-122.81
2019-08-06 14:06:46.203125,-165.4
2019-08-06 14:06:46.218750,-209.23
2019-08-06 14:06:46.234375,-251.47
2019-08-06 14:06:46.250000,-287.91
2019-08-06 14:06:46.265625,-313.98
2019-08-06 14:06:46.281250,-326.31
2019-08-06 14:06:46.296875,-324.39
2019-08-06 14:06:46.312500,-309.93
2019-08-06 14:06:46.328125,-287.94
2019-08-06 14:06:46.343750,-264.6
2019-08-06 14:06:46.359375,-244.56
2019-08-06 14:06:46.375000,-229.32
2019-08-06 14:06:46.390625,-218.04
2019-08-06 14:06:46.406250,-209.46
2019-08-06 14:06:46.421875,-203.44
2019-08-06 14:06:46.437500,-200.9
2019-08-06 14:06:46.453125,-202.56
2019-08-06 14:06:46.468750,-207.27
2019-08-06 14:06:46.484375,-211.47
2019-08-06 14:06:46.500000,-210.39
2019-08-06 14:06:46.515625,-199.93
2019-08-06 14:06:46.531250,-178.56
2019-08-06 14:06:46.546875,-147.44
2019-08-06 14:06:46.562500,-109.37
2019-08-06 14:06:46.578125,-67.72
2019-08-06 14:06:46.593750,-26.22
2019-08-06 14:06:46.609375,12.38
2019-08-06 14:06:46.625000,45.86
2019-08-06 14:06:46.640625,72.31
2019-08-06 14:06:46.656250,90.8
2019-08-06 14:06:46.671875,101.68
2019-08-06 14:06:46.687500,106.17
2019-08-06 14:06:46.703125,105.37
2019-08-06 14:06:46.718750,98.93
2019-08-06 14:06:46.734375,85.23
2019-08-06 14:06:46.750000,63.4
2019-08-06 14:06:46.765625,35.6
2019-08-06 14:06:46.781250,8.54
2019-08-06 14:06:46.796875,-7.8
2019-08-06 14:06:46.812500,-3.93
2019-08-06 14:06:46.828125,24.55
2019-08-06 14:06:46.843750,73.78
2019-08-06 14:06:46.859375,131.47
2019-08-06 14:06:46.875000,180.12
2019-08-06 14:06:46.890625,203.21
2019-08-06 14:06:46.906250,191.26
2019-08-06 14:06:46.921875,145.4
2019-08-06 14:06:46.937500,77.12
2019-08-06 14:06:46.953125,3.59
2019-08-06 14:06:46.968750,-58.92
2019-08-06 14:06:46.984375,-100.75
2019-08-06 14:06:47.000000,-119.49
2019-08-06 14:06:47.015625,-120.8
2019-08-06 14:06:47.031250,-114.15
2019-08-06 14:06:47.046875,-107.99
2019-08-06 14:06:47.062500,-106.4
2019-08-06 14:06:47.078125,-109.21
2019-08-06 14:06:47.093750,-114.4
2019-08-06 14:06:47.109375,-121.19
2019-08-06 14:06:47.125000,-130.81
2019-08-06 14:06:47.140625,-145.48
2019-08-06 14:06:47.156250,-166.45
2019-08-06 14:06:47.171875,-192.18
2019-08-06 14:06:47.187500,-218.65
2019-08-06 14:06:47.203125,-241.22
2019-08-06 14:06:47.218750,-257.18
2019-08-06 14:06:47.234375,-267.1
2019-08-06 14:06:47.250000,-274.31
2019-08-06 14:06:47.265625,-283.14
2019-08-06 14:06:47.281250,-296.74
2019-08-06 14:06:47.296875,-315.83
2019-08-06 14:06:47.312500,-338.06
2019-08-06 14:06:47.328125,-359.05
2019-08-06 14:06:47.343750,-374.0
2019-08-06 14:06:47.359375,-379.32
2019-08-06 14:06:47.375000,-373.44
2019-08-06 14:06:47.390625,-357.54
2019-08-06 14:06:47.406250,-333.02
2019-08-06 14:06:47.421875,-300.89
2019-08-06 14:06:47.437500,-261.45
2019-08-06 14:06:47.453125,-214.35
2019-08-06 14:06:47.468750,-159.25
2019-08-06 14:06:47.484375,-96.74
2019-08-06 14:06:47.500000,-29.01
2019-08-06 14:06:47.515625,40.18
2019-08-06 14:06:47.531250,106.08
2019-08-06 14:06:47.546875,164.15
2019-08-06 14:06:47.562500,210.77
2019-08-06 14:06:47.578125,243.79
2019-08-06 14:06:47.593750,262.69
2019-08-06 14:06:47.609375,268.27
2019-08-06 14:06:47.625000,262.18
2019-08-06 14:06:47.640625,246.37
2019-08-06 14:06:47.656250,222.75
2019-08-06 14:06:47.671875,193.04
2019-08-06 14:06:47.687500,158.99
2019-08-06 14:06:47.703125,122.26
2019-08-06 14:06:47.718750,84.44
2019-08-06 14:06:47.734375,47.1
2019-08-06 14:06:47.750000,11.64
2019-08-06 14:06:47.765625,-20.73
2019-08-06 14:06:47.781250,-49.08
2019-08-06 14:06:47.796875,-72.68
2019-08-06 14:06:47.812500,-90.98
2019-08-06 14:06:47.828125,-103.58
2019-08-06 14:06:47.843750,-110.27
2019-08-06 14:06:47.859375,-111.2
2019-08-06 14:06:47.875000,-106.98
2019-08-06 14:06:47.890625,-98.76
2019-08-06 14:06:47.906250,-88.06
2019-08-06 14:06:47.921875,-76.63
2019-08-06 14:06:47.937500,-66.07
2019-08-06 14:06:47.953125,-57.55
2019-08-06 14:06:47.968750,-51.63
2019-08-06 14:06:47.984375,-48.28
2019-08-06 14:06:48.000000,-47.08
2019-08-06 14:06:48.015625,-47.51
2019-08-06 14:06:48.031250,-49.12
2019-08-06 14:06:48.046875,-51.62
2019-08-06 14:06:48.062500,-54.77
2019-08-06 14:06:48.078125,-58.15
2019-08-06 14:06:48.093750,-60.94
2019-08-06 14:06:48.109375,-61.93
2019-08-06 14:06:48.125000,-59.81
2019-08-06 14:06:48.140625,-53.53
2019-08-06 14:06:48.156250,-42.74
2019-08-06 14:06:48.171875,-27.96
2019-08-06 14:06:48.187500,-10.46
2019-08-06 14:06:48.203125,8.37
2019-08-06 14:06:48.218750,27.37
2019-08-06 14:06:48.234375,46.14
2019-08-06 14:06:48.250000,64.96
2019-08-06 14:06:48.265625,84.45
2019-08-06 14:06:48.281250,105.2
2019-08-06 14:06:48.296875,127.57
2019-08-06 14:06:48.312500,151.81
2019-08-06 14:06:48.328125,178.17
2019-08-06 14:06:48.343750,206.61
2019-08-06 14:06:48.359375,236.24
2019-08-06 14:06:48.375000,264.75
2019-08-06 14:06:48.390625,288.49
2019-08-06 14:06:48.406250,303.57
2019-08-06 14:06:48.421875,307.5
2019-08-06 14:06:48.437500,300.46
2019-08-06 14:06:48.453125,285.43
2019-08-06 14:06:48.468750,266.9
2019-08-06 14:06:48.484375,248.77
2019-08-06 14:06:48.500000,232.71
2019-08-06 14:06:48.515625,218.02
2019-08-06 14:06:48.531250,202.9
2019-08-06 14:06:48.546875,186.18
2019-08-06 14:06:48.562500,168.51
2019-08-06 14:06:48.578125,152.03
2019-08-06 14:06:48.593750,138.86
2019-08-06 14:06:48.609375,129.64
2019-08-06 14:06:48.625000,122.83
2019-08-06 14:06:48.640625,115.52
2019-08-06 14:06:48.656250,104.96
2019-08-06 14:06:48.671875,90.07
2019-08-06 14:06:48.687500,72.0
2019-08-06 14:06:48.703125,53.53
2019-08-06 14:06:48.718750,37.61
2019-08-06 14:06:48.734375,25.88
2019-08-06 14:06:48.750000,18.05
2019-08-06 14:06:48.765625,12.33
2019-08-06 14:06:48.781250,6.63
2019-08-06 14:06:48.796875,-0.15
2019-08-06 14:06:48.812500,-7.41
2019-08-06 14:06:48.828125,-13.28
2019-08-06 14:06:48.843750,-15.74
2019-08-06 14:06:48.859375,-13.99
2019-08-06 14:06:48.875000,-9.09
2019-08-06 14:06:48.890625,-3.61
2019-08-06 14:06:48.906250,-0.27
2019-08-06 14:06:48.921875,-0.57
2019-08-06 14:06:48.937500,-4.01
2019-08-06 14:06:48.953125,-8.55
2019-08-06 14:06:48.968750,-11.82
2019-08-06 14:06:48.984375,-12.49
2019-08-06 14:06:49.000000,-10.97
2019-08-06 14:06:49.015625,-9.03
2019-08-06 14:06:49.031250,-8.57
2019-08-06 14:06:49.046875,-10.53
2019-08-06 14:06:49.062500,-14.32
2019-08-06 14:06:49.078125,-18.27
2019-08-06 14:06:49.093750,-20.71
2019-08-06 14:06:49.109375,-21.02
2019-08-06 14:06:49.125000,-19.99
2019-08-06 14:06:49.140625,-19.34
2019-08-06 14:06:49.156250,-20.64
2019-08-06 14:06:49.171875,-24.21
2019-08-06 14:06:49.187500,-28.75
2019-08-06 14:06:49.203125,-32.06
2019-08-06 14:06:49.218750,-32.36
2019-08-06 14:06:49.234375,-29.31
2019-08-06 14:06:49.250000,-24.31
2019-08-06 14:06:49.265625,-19.73
2019-08-06 14:06:49.281250,-17.38
2019-08-06 14:06:49.296875,-17.4
2019-08-06 14:06:49.312500,-17.69
2019-08-06 14:06:49.328125,-14.76
2019-08-06 14:06:49.343750,-5.49
2019-08-06 14:06:49.359375,11.32
2019-08-06 14:06:49.375000,34.43
2019-08-06 14:06:49.390625,60.67
2019-08-06 14:06:49.406250,86.29
2019-08-06 14:06:49.421875,108.54
2019-08-06 14:06:49.437500,126.32
2019-08-06 14:06:49.453125,140.49
2019-08-06 14:06:49.468750,153.32
2019-08-06 14:06:49.484375,167.33
2019-08-06 14:06:49.500000,184.16
2019-08-06 14:06:49.515625,204.55
2019-08-06 14:06:49.531250,228.35
2019-08-06 14:06:49.546875,254.76
2019-08-06 14:06:49.562500,282.55
2019-08-06 14:06:49.578125,309.94
2019-08-06 14:06:49.593750,334.8
2019-08-06 14:06:49.609375,354.89
2019-08-06 14:06:49.625000,367.68
2019-08-06 14:06:49.640625,370.76
2019-08-06 14:06:49.656250,362.38
2019-08-06 14:06:49.671875,341.99
2019-08-06 14:06:49.687500,310.41
2019-08-06 14:06:49.703125,271.19
2019-08-06 14:06:49.718750,228.0
2019-08-06 14:06:49.734375,182.81
2019-08-06 14:06:49.750000,137.61
2019-08-06 14:06:49.765625,93.83
2019-08-06 14:06:49.781250,52.48
2019-08-06 14:06:49.796875,14.38
2019-08-06 14:06:49.812500,-19.6
2019-08-06 14:06:49.828125,-48.63
2019-08-06 14:06:49.843750,-72.02
2019-08-06 14:06:49.859375,-89.74
2019-08-06 14:06:49.875000,-102.38
2019-08-06 14:06:49.890625,-110.95
2019-08-06 14:06:49.906250,-117.06
2019-08-06 14:06:49.921875,-122.53
2019-08-06 14:06:49.937500,-128.78
2019-08-06 14:06:49.953125,-136.16
2019-08-06 14:06:49.968750,-144.73
2019-08-06 14:06:49.984375,-154.35
2019-08-06 14:06:50.000000,-164.99
2019-08-06 14:06:50.015625,-176.7
2019-08-06 14:06:50.031250,-189.52
2019-08-06 14:06:50.046875,-203.69
2019-08-06 14:06:50.062500,-219.16
2019-08-06 14:06:50.078125,-235.21
2019-08-06 14:06:50.093750,-250.32
2019-08-06 14:06:50.109375,-262.5
2019-08-06 14:06:50.125000,-269.93
2019-08-06 14:06:50.140625,-271.54
2019-08-06 14:06:50.156250,-267.28
2019-08-06 14:06:50.171875,-257.9
2019-08-06 14:06:50.187500,-244.86
2019-08-06 14:06:50.203125,-229.54
2019-08-06 14:06:50.218750,-212.54
2019-08-06 14:06:50.234375,-193.49
2019-08-06 14:06:50.250000,-170.59
2019-08-06 14:06:50.265625,-142.83
2019-08-06 14:06:50.281250,-110.67
2019-08-06 14:06:50.296875,-77.03
2019-08-06 14:06:50.312500,-45.48
2019-08-06 14:06:50.328125,-20.18
2019-08-06 14:06:50.343750,-5.25
2019-08-06 14:06:50.359375,-4.26
2019-08-06 14:06:50.375000,-19.62
2019-08-06 14:06:50.390625,-51.66
2019-08-06 14:06:50.406250,-97.94
2019-08-06 14:06:50.421875,-152.91
2019-08-06 14:06:50.437500,-208.16
2019-08-06 14:06:50.453125,-254.16
2019-08-06 14:06:50.468750,-284.19
2019-08-06 14:06:50.484375,-296.45
2019-08-06 14:06:50.500000,-294.39
2019-08-06 14:06:50.515625,-284.7
2019-08-06 14:06:50.531250,-273.99
2019-08-06 14:06:50.546875,-266.49
2019-08-06 14:06:50.562500,-263.05
2019-08-06 14:06:50.578125,-262.29
2019-08-06 14:06:50.593750,-262.4
2019-08-06 14:06:50.609375,-262.51
2019-08-06 14:06:50.625000,-262.31
2019-08-06 14:06:50.640625,-260.98
2019-08-06 14:06:50.656250,-257.22
2019-08-06 14:06:50.671875,-247.86
2019-08-06 14:06:50.687500,-229.77
2019-08-06 14:06:50.703125,-201.55
2019-08-06 14:06:50.718750,-164.51
2019-08-06 14:06:50.734375,-122.15
2019-08-06 14:06:50.750000,-79.28
2019-08-06 14:06:50.765625,-39.85
2019-08-06 14:06:50.781250,-5.78
2019-08-06 14:06:50.796875,23.46
2019-08-06 14:06:50.812500,50.37
2019-08-06 14:06:50.828125,78.3
2019-08-06 14:06:50.843750,110.66
2019-08-06 14:06:50.859375,149.64
2019-08-06 14:06:50.875000,195.3
2019-08-06 14:06:50.890625,244.69
2019-08-06 14:06:50.906250,292.04
2019-08-06 14:06:50.921875,330.09
2019-08-06 14:06:50.937500,352.47
2019-08-06 14:06:50.953125,356.48
2019-08-06 14:06:50.968750,343.6
2019-08-06 14:06:50.984375,319.79
2019-08-06 14:06:51.000000,292.96
2019-08-06 14:06:51.015625,269.84
2019-08-06 14:06:51.031250,253.68
2019-08-06 14:06:51.046875,243.87
2019-08-06 14:06:51.062500,237.58
2019-08-06 14:06:51.078125,231.85
2019-08-06 14:06:51.093750,225.11
2019-08-06 14:06:51.109375,217.13
2019-08-06 14:06:51.125000,208.2
2019-08-06 14:06:51.140625,197.93
2019-08-06 14:06:51.156250,185.13
2019-08-06 14:06:51.171875,168.37
2019-08-06 14:06:51.187500,147.06
2019-08-06 14:06:51.203125,122.07
2019-08-06 14:06:51.218750,95.51
2019-08-06 14:06:51.234375,70.08
2019-08-06 14:06:51.250000,47.94
2019-08-06 14:06:51.265625,30.04
2019-08-06 14:06:51.281250,15.93
2019-08-06 14:06:51.296875,4.24
2019-08-06 14:06:51.312500,-6.53
2019-08-06 14:06:51.328125,-17.34
2019-08-06 14:06:51.343750,-28.23
2019-08-06 14:06:51.359375,-38.42
2019-08-06 14:06:51.375000,-46.8
2019-08-06 14:06:51.390625,-52.56
2019-08-06 14:06:51.406250,-55.51
2019-08-06 14:06:51.421875,-56.21
2019-08-06 14:06:51.437500,-55.67
2019-08-06 14:06:51.453125,-54.91
2019-08-06 14:06:51.468750,-54.56
2019-08-06 14:06:51.484375,-54.71
2019-08-06 14:06:51.500000,-54.96
2019-08-06 14:06:51.515625,-54.71
2019-08-06 14:06:51.531250,-53.48
2019-08-06 14:06:51.546875,-51.13
2019-08-06 14:06:51.562500,-47.89
2019-08-06 14:06:51.578125,-44.22
2019-08-06 14:06:51.593750,-40.58
2019-08-06 14:06:51.609375,-37.26
2019-08-06 14:06:51.625000,-34.33
2019-08-06 14:06:51.640625,-31.61
2019-08-06 14:06:51.656250,-28.86
2019-08-06 14:06:51.671875,-25.88
2019-08-06 14:06:51.687500,-22.6
2019-08-06 14:06:51.703125,-19.09
2019-08-06 14:06:51.718750,-15.51
2019-08-06 14:06:51.734375,-11.97
2019-08-06 14:06:51.750000,-8.58
2019-08-06 14:06:51.765625,-5.39
2019-08-06 14:06:51.781250,-2.39
2019-08-06 14:06:51.796875,0.49
2019-08-06 14:06:51.812500,3.27
2019-08-06 14:06:51.828125,6.01
2019-08-06 14:06:51.843750,8.66
2019-08-06 14:06:51.859375,11.28
2019-08-06 14:06:51.875000,13.9
2019-08-06 14:06:51.890625,16.48
2019-08-06 14:06:51.906250,18.85
2019-08-06 14:06:51.921875,20.78
2019-08-06 14:06:51.937500,21.96
2019-08-06 14:06:51.953125,21.98
2019-08-06 14:06:51.968750,20.47
2019-08-06 14:06:51.984375,16.89
2019-08-06 14:06:52.000000,10.81
2019-08-06 14:06:52.015625,1.91
2019-08-06 14:06:52.031250,-9.99
2019-08-06 14:06:52.046875,-24.88
2019-08-06 14:06:52.062500,-42.4
2019-08-06 14:06:52.078125,-61.92
2019-08-06 14:06:52.093750,-82.49
2019-08-06 14:06:52.109375,-102.84
2019-08-06 14:06:52.125000,-121.66
2019-08-06 14:06:52.140625,-137.4
2019-08-06 14:06:52.156250,-148.62
2019-08-06 14:06:52.171875,-154.2
2019-08-06 14:06:52.187500,-153.53
2019-08-06 14:06:52.203125,-146.48
2019-08-06 14:06:52.218750,-133.5
2019-08-06 14:06:52.234375,-115.54
2019-08-06 14:06:52.250000,-93.18
2019-08-06 14:06:52.265625,-68.62
2019-08-06 14:06:52.281250,-43.85
2019-08-06 14:06:52.296875,-20.55
2019-08-06 14:06:52.312500,-0.05
2019-08-06 14:06:52.328125,16.76
2019-08-06 14:06:52.343750,29.5
2019-08-06 14:06:52.359375,38.23
2019-08-06 14:06:52.375000,43.44
2019-08-06 14:06:52.390625,45.92
2019-08-06 14:06:52.406250,46.41
2019-08-06 14:06:52.421875,45.72
2019-08-06 14:06:52.437500,44.41
2019-08-06 14:06:52.453125,42.67
2019-08-06 14:06:52.468750,40.49
2019-08-06 14:06:52.484375,37.81
2019-08-06 14:06:52.500000,34.66
2019-08-06 14:06:52.515625,31.41
2019-08-06 14:06:52.531250,28.45
2019-08-06 14:06:52.546875,26.03
2019-08-06 14:06:52.562500,24.41
2019-08-06 14:06:52.578125,23.43
2019-08-06 14:06:52.593750,22.57
2019-08-06 14:06:52.609375,21.16
2019-08-06 14:06:52.625000,18.71
2019-08-06 14:06:52.640625,15.16
2019-08-06 14:06:52.656250,11.02
2019-08-06 14:06:52.671875,7.16
2019-08-06 14:06:52.687500,4.35
2019-08-06 14:06:52.703125,3.03
2019-08-06 14:06:52.718750,2.9
2019-08-06 14:06:52.734375,3.04
2019-08-06 14:06:52.750000,2.26
2019-08-06 14:06:52.765625,-0.24
2019-08-06 14:06:52.781250,-4.53
2019-08-06 14:06:52.796875,-9.79
2019-08-06 14:06:52.812500,-14.65
2019-08-06 14:06:52.828125,-18.01
2019-08-06 14:06:52.843750,-19.25
2019-08-06 14:06:52.859375,-18.78
2019-08-06 14:06:52.875000,-17.81
2019-08-06 14:06:52.890625,-17.71
2019-08-06 14:06:52.906250,-19.73
2019-08-06 14:06:52.921875,-24.73
2019-08-06 14:06:52.937500,-33.33
2019-08-06 14:06:52.953125,-45.47
2019-08-06 14:06:52.968750,-59.74
2019-08-06 14:06:52.984375,-73.01
2019-08-06 14:06:53.000000,-80.71
2019-08-06 14:06:53.015625,-78.37
2019-08-06 14:06:53.031250,-63.83
2019-08-06 14:06:53.046875,-38.75
2019-08-06 14:06:53.062500,-8.41
2019-08-06 14:06:53.078125,20.16
2019-08-06 14:06:53.093750,41.14
2019-08-06 14:06:53.109375,52.13
2019-08-06 14:06:53.125000,54.61
2019-08-06 14:06:53.140625,52.32
2019-08-06 14:06:53.156250,49.04
2019-08-06 14:06:53.171875,46.59
2019-08-06 14:06:53.187500,44.79
2019-08-06 14:06:53.203125,42.62
2019-08-06 14:06:53.218750,39.59
2019-08-06 14:06:53.234375,36.33
2019-08-06 14:06:53.250000,34.22
2019-08-06 14:06:53.265625,34.35
2019-08-06 14:06:53.281250,36.78
2019-08-06 14:06:53.296875,40.67
2019-08-06 14:06:53.312500,44.56
2019-08-06 14:06:53.328125,47.19
2019-08-06 14:06:53.343750,48.39
2019-08-06 14:06:53.359375,49.01
2019-08-06 14:06:53.375000,50.3
2019-08-06 14:06:53.390625,53.32
2019-08-06 14:06:53.406250,58.3
2019-08-06 14:06:53.421875,64.49
2019-08-06 14:06:53.437500,70.62
2019-08-06 14:06:53.453125,74.84
2019-08-06 14:06:53.468750,75.67
2019-08-06 14:06:53.484375,72.48
2019-08-06 14:06:53.500000,65.51
2019-08-06 14:06:53.515625,55.6
2019-08-06 14:06:53.531250,43.75
2019-08-06 14:06:53.546875,30.77
2019-08-06 14:06:53.562500,15.78
2019-08-06 14:06:53.578125,0.2
2019-08-06 14:06:53.593750,-15.21
2019-08-06 14:06:53.609375,-29.99
2019-08-06 14:06:53.625000,-43.4
2019-08-06 14:06:53.640625,-54.65
2019-08-06 14:06:53.656250,-62.97
2019-08-06 14:06:53.671875,-67.87
2019-08-06 14:06:53.687500,-69.29
2019-08-06 14:06:53.703125,-67.7
2019-08-06 14:06:53.718750,-63.52
2019-08-06 14:06:53.734375,-57.75
2019-08-06 14:06:53.750000,-51.37
2019-08-06 14:06:53.765625,-45.04
2019-08-06 14:06:53.781250,-39.23
2019-08-06 14:06:53.796875,-34.19
2019-08-06 14:06:53.812500,-30.15
2019-08-06 14:06:53.828125,-27.29
2019-08-06 14:06:53.843750,-25.8
2019-08-06 14:06:53.859375,-26.17
2019-08-06 14:06:53.875000,-28.27
2019-08-06 14:06:53.890625,-31.97
2019-08-06 14:06:53.906250,-36.97
2019-08-06 14:06:53.921875,-42.92
2019-08-06 14:06:53.937500,-49.47
2019-08-06 14:06:53.953125,-56.21
2019-08-06 14:06:53.968750,-62.78
2019-08-06 14:06:53.984375,-68.76
2019-08-06 14:06:54.000000,-73.65
2019-08-06 14:06:54.015625,-76.89
2019-08-06 14:06:54.031250,-78.47
2019-08-06 14:06:54.046875,-78.12
2019-08-06 14:06:54.062500,-75.78
2019-08-06 14:06:54.078125,-71.55
2019-08-06 14:06:54.093750,-65.69
2019-08-06 14:06:54.109375,-58.62
2019-08-06 14:06:54.125000,-50.87
2019-08-06 14:06:54.140625,-43.01
2019-08-06 14:06:54.156250,-35.69
2019-08-06 14:06:54.171875,-29.67
2019-08-06 14:06:54.187500,-25.25
2019-08-06 14:06:54.203125,-22.68
2019-08-06 14:06:54.218750,-22.13
2019-08-06 14:06:54.234375,-23.63
2019-08-06 14:06:54.250000,-27.09
2019-08-06 14:06:54.265625,-32.37
2019-08-06 14:06:54.281250,-39.23
2019-08-06 14:06:54.296875,-47.47
2019-08-06 14:06:54.312500,-57.0
2019-08-06 14:06:54.328125,-67.27
2019-08-06 14:06:54.343750,-77.92
2019-08-06 14:06:54.359375,-88.67
2019-08-06 14:06:54.375000,-99.34
2019-08-06 14:06:54.390625,-109.77
2019-08-06 14:06:54.406250,-119.92
2019-08-06 14:06:54.421875,-129.81
2019-08-06 14:06:54.437500,-139.49
2019-08-06 14:06:54.453125,-149.16
2019-08-06 14:06:54.468750,-158.38
2019-08-06 14:06:54.484375,-166.89
2019-08-06 14:06:54.500000,-174.44
2019-08-06 14:06:54.515625,-180.76
2019-08-06 14:06:54.531250,-185.51
2019-08-06 14:06:54.546875,-188.2
2019-08-06 14:06:54.562500,-188.04
2019-08-06 14:06:54.578125,-183.77
2019-08-06 14:06:54.593750,-177.87
2019-08-06 14:06:54.609375,-171.01
2019-08-06 14:06:54.625000,-163.56
2019-08-06 14:06:54.640625,-155.72
2019-08-06 14:06:54.656250,-147.61
2019-08-06 14:06:54.671875,-139.37
2019-08-06 14:06:54.687500,-131.12
2019-08-06 14:06:54.703125,-123.06
2019-08-06 14:06:54.718750,-115.43
2019-08-06 14:06:54.734375,-108.5
2019-08-06 14:06:54.750000,-101.93
2019-08-06 14:06:54.765625,-95.49
2019-08-06 14:06:54.781250,-89.01
2019-08-06 14:06:54.796875,-82.37
2019-08-06 14:06:54.812500,-75.54
2019-08-06 14:06:54.828125,-68.58
2019-08-06 14:06:54.843750,-61.65
2019-08-06 14:06:54.859375,-54.96
2019-08-06 14:06:54.875000,-48.72
2019-08-06 14:06:54.890625,-42.59
2019-08-06 14:06:54.906250,-36.29
2019-08-06 14:06:54.921875,-29.53
2019-08-06 14:06:54.937500,-22.13
2019-08-06 14:06:54.953125,-14.08
2019-08-06 14:06:54.968750,-5.59
2019-08-06 14:06:54.984375,2.98
2019-08-06 14:06:55.000000,11.22
2019-08-06 14:06:55.015625,18.84
2019-08-06 14:06:55.031250,26.08
2019-08-06 14:06:55.046875,33.34
2019-08-06 14:06:55.062500,41.1
2019-08-06 14:06:55.078125,49.72
2019-08-06 14:06:55.093750,59.27
2019-08-06 14:06:55.109375,69.44
2019-08-06 14:06:55.125000,79.67
2019-08-06 14:06:55.140625,89.39
2019-08-06 14:06:55.156250,98.29
2019-08-06 14:06:55.171875,106.67
2019-08-06 14:06:55.187500,115.25
2019-08-06 14:06:55.203125,124.91
2019-08-06 14:06:55.218750,136.36
2019-08-06 14:06:55.234375,149.83
2019-08-06 14:06:55.250000,164.98
2019-08-06 14:06:55.265625,181.1
2019-08-06 14:06:55.281250,197.34
2019-08-06 14:06:55.296875,213.17
2019-08-06 14:06:55.312500,228.54
2019-08-06 14:06:55.328125,243.79
2019-08-06 14:06:55.343750,259.58
2019-08-06 14:06:55.359375,276.69
2019-08-06 14:06:55.375000,296.02
2019-08-06 14:06:55.390625,318.2
2019-08-06 14:06:55.406250,343.07
2019-08-06 14:06:55.421875,369.1
2019-08-06 14:06:55.437500,393.07
2019-08-06 14:06:55.453125,410.6
2019-08-06 14:06:55.468750,417.41
2019-08-06 14:06:55.484375,410.93
2019-08-06 14:06:55.500000,391.38
2019-08-06 14:06:55.515625,361.8
2019-08-06 14:06:55.531250,326.91
2019-08-06 14:06:55.546875,291.36
2019-08-06 14:06:55.562500,258.36
2019-08-06 14:06:55.578125,229.2
2019-08-06 14:06:55.593750,203.81
2019-08-06 14:06:55.609375,181.66
2019-08-06 14:06:55.625000,162.45
2019-08-06 14:06:55.640625,146.16
2019-08-06 14:06:55.656250,132.7
2019-08-06 14:06:55.671875,121.5
2019-08-06 14:06:55.687500,111.53
2019-08-06 14:06:55.703125,101.67
2019-08-06 14:06:55.718750,91.22
2019-08-06 14:06:55.734375,80.12
2019-08-06 14:06:55.750000,68.9
2019-08-06 14:06:55.765625,58.39
2019-08-06 14:06:55.781250,49.22
2019-08-06 14:06:55.796875,41.58
2019-08-06 14:06:55.812500,35.14
2019-08-06 14:06:55.828125,29.25
2019-08-06 14:06:55.843750,23.23
2019-08-06 14:06:55.859375,16.65
2019-08-06 14:06:55.875000,9.49
2019-08-06 14:06:55.890625,2.17
2019-08-06 14:06:55.906250,-4.68
2019-08-06 14:06:55.921875,-10.41
2019-08-06 14:06:55.937500,-14.63
2019-08-06 14:06:55.953125,-17.05
2019-08-06 14:06:55.968750,-17.71
2019-08-06 14:06:55.984375,-16.92
2019-08-06 14:06:56.000000,-15.18
2019-08-06 14:06:56.015625,-12.93
2019-08-06 14:06:56.031250,-10.62
2019-08-06 14:06:56.046875,-8.31
2019-08-06 14:06:56.062500,-5.96
2019-08-06 14:06:56.078125,-3.56
2019-08-06 14:06:56.093750,-0.97
2019-08-06 14:06:56.109375,1.64
2019-08-06 14:06:56.125000,3.75
2019-08-06 14:06:56.140625,4.59
2019-08-06 14:06:56.156250,3.43
2019-08-06 14:06:56.171875,-0.19
2019-08-06 14:06:56.187500,-6.09
2019-08-06 14:06:56.203125,-13.78
2019-08-06 14:06:56.218750,-22.67
2019-08-06 14:06:56.234375,-31.79
2019-08-06 14:06:56.250000,-40.48
2019-08-06 14:06:56.265625,-48.49
2019-08-06 14:06:56.281250,-55.87
2019-08-06 14:06:56.296875,-62.71
2019-08-06 14:06:56.312500,-69.17
2019-08-06 14:06:56.328125,-75.02
2019-08-06 14:06:56.343750,-80.11
2019-08-06 14:06:56.359375,-84.58
2019-08-06 14:06:56.375000,-87.28
2019-08-06 14:06:56.390625,-87.38
2019-08-06 14:06:56.406250,-84.8
2019-08-06 14:06:56.421875,-80.22
2019-08-06 14:06:56.437500,-74.57
2019-08-06 14:06:56.453125,-69.06
2019-08-06 14:06:56.468750,-63.38
2019-08-06 14:06:56.484375,-56.85
2019-08-06 14:06:56.500000,-48.94
2019-08-06 14:06:56.515625,-36.55
2019-08-06 14:06:56.531250,-17.75
2019-08-06 14:06:56.546875,7.01
2019-08-06 14:06:56.562500,34.94
2019-08-06 14:06:56.578125,62.44
2019-08-06 14:06:56.593750,85.35
2019-08-06 14:06:56.609375,103.2
2019-08-06 14:06:56.625000,116.73
2019-08-06 14:06:56.640625,126.86
2019-08-06 14:06:56.656250,138.87
2019-08-06 14:06:56.671875,156.52
2019-08-06 14:06:56.687500,180.18
2019-08-06 14:06:56.703125,206.91
2019-08-06 14:06:56.718750,232.8
2019-08-06 14:06:56.734375,253.31
2019-08-06 14:06:56.750000,269.58
2019-08-06 14:06:56.765625,284.4
2019-08-06 14:06:56.781250,300.33
2019-08-06 14:06:56.796875,324.99
2019-08-06 14:06:56.812500,363.24
2019-08-06 14:06:56.828125,414.52
2019-08-06 14:06:56.843750,473.1
2019-08-06 14:06:56.859375,531.28
2019-08-06 14:06:56.875000,579.88
2019-08-06 14:06:56.890625,616.89
2019-08-06 14:06:56.906250,642.71
2019-08-06 14:06:56.921875,621.51
2019-08-06 14:06:56.937500,535.29
2019-08-06 14:06:56.953125,389.79
2019-08-06 14:06:56.968750,212.59
2019-08-06 14:06:56.984375,35.76
2019-08-06 14:06:57.000000,-102.65
2019-08-06 14:06:57.015625,-210.5
2019-08-06 14:06:57.031250,-300.32
2019-08-06 14:06:57.046875,-381.06
2019-08-06 14:06:57.062500,-456.98
2019-08-06 14:06:57.078125,-523.73
2019-08-06 14:06:57.093750,-573.22
2019-08-06 14:06:57.109375,-600.87
2019-08-06 14:06:57.125000,-608.08
2019-08-06 14:06:57.140625,-600.46
2019-08-06 14:06:57.156250,-587.18
2019-08-06 14:06:57.171875,-571.39
2019-08-06 14:06:57.187500,-553.92
2019-08-06 14:06:57.203125,-534.73
2019-08-06 14:06:57.218750,-508.94
2019-08-06 14:06:57.234375,-473.12
2019-08-06 14:06:57.250000,-427.79
2019-08-06 14:06:57.265625,-377.03
2019-08-06 14:06:57.281250,-325.81
2019-08-06 14:06:57.296875,-279.46
2019-08-06 14:06:57.312500,-237.52
2019-08-06 14:06:57.328125,-198.45
2019-08-06 14:06:57.343750,-161.74
2019-08-06 14:06:57.359375,-125.69
2019-08-06 14:06:57.375000,-90.44
2019-08-06 14:06:57.390625,-58.45
2019-08-06 14:06:57.406250,-33.03
2019-08-06 14:06:57.421875,-16.35
2019-08-06 14:06:57.437500,-9.34
2019-08-06 14:06:57.453125,-8.84
2019-08-06 14:06:57.468750,-11.36
2019-08-06 14:06:57.484375,-15.06
2019-08-06 14:06:57.500000,-18.57
2019-08-06 14:06:57.515625,-21.69
2019-08-06 14:06:57.531250,-25.09
2019-08-06 14:06:57.546875,-29.31
2019-08-06 14:06:57.562500,-34.18
2019-08-06 14:06:57.578125,-39.34
2019-08-06 14:06:57.593750,-43.21
2019-08-06 14:06:57.609375,-44.49
2019-08-06 14:06:57.625000,-42.54
2019-08-06 14:06:57.640625,-36.66
2019-08-06 14:06:57.656250,-26.53
2019-08-06 14:06:57.671875,-12.68
2019-08-06 14:06:57.687500,3.32
2019-08-06 14:06:57.703125,19.29
2019-08-06 14:06:57.718750,33.04
2019-08-06 14:06:57.734375,43.88
2019-08-06 14:06:57.750000,52.55
2019-08-06 14:06:57.765625,60.58
2019-08-06 14:06:57.781250,69.14
2019-08-06 14:06:57.796875,77.86
2019-08-06 14:06:57.812500,84.59
2019-08-06 14:06:57.828125,86.14
2019-08-06 14:06:57.843750,79.97
2019-08-06 14:06:57.859375,65.64
2019-08-06 14:06:57.875000,45.32
2019-08-06 14:06:57.890625,23.23
2019-08-06 14:06:57.906250,3.97
2019-08-06 14:06:57.921875,-9.38
2019-08-06 14:06:57.937500,-16.47
2019-08-06 14:06:57.953125,-19.64
2019-08-06 14:06:57.968750,-22.55
2019-08-06 14:06:57.984375,-28.17
2019-08-06 14:06:58.000000,-37.06
2019-08-06 14:06:58.015625,-46.97
2019-08-06 14:06:58.031250,-53.63
2019-08-06 14:06:58.046875,-52.86
2019-08-06 14:06:58.062500,-43.01
2019-08-06 14:06:58.078125,-26.11
2019-08-06 14:06:58.093750,-7.13
2019-08-06 14:06:58.109375,8.29
2019-08-06 14:06:58.125000,16.56
2019-08-06 14:06:58.140625,17.37
2019-08-06 14:06:58.156250,13.04
2019-08-06 14:06:58.171875,7.37
2019-08-06 14:06:58.187500,3.67
2019-08-06 14:06:58.203125,3.35
2019-08-06 14:06:58.218750,5.64
2019-08-06 14:06:58.234375,8.66
2019-08-06 14:06:58.250000,10.52
2019-08-06 14:06:58.265625,9.52
2019-08-06 14:06:58.281250,3.48
2019-08-06 14:06:58.296875,-11.04
2019-08-06 14:06:58.312500,-36.5
2019-08-06 14:06:58.328125,-71.82
2019-08-06 14:06:58.343750,-111.15
2019-08-06 14:06:58.359375,-144.88
2019-08-06 14:06:58.375000,-163.17
2019-08-06 14:06:58.390625,-160.33
2019-08-06 14:06:58.406250,-138.62
2019-08-06 14:06:58.421875,-108.59
2019-08-06 14:06:58.437500,-85.64
2019-08-06 14:06:58.453125,-81.59
2019-08-06 14:06:58.468750,-98.43
2019-08-06 14:06:58.484375,-127.04
2019-08-06 14:06:58.500000,-151.46
2019-08-06 14:06:58.515625,-155.86
2019-08-06 14:06:58.531250,-130.87
2019-08-06 14:06:58.546875,-76.75
2019-08-06 14:06:58.562500,1.36
2019-08-06 14:06:58.578125,87.91
2019-08-06 14:06:58.593750,163.09
2019-08-06 14:06:58.609375,212.1
2019-08-06 14:06:58.625000,231.42
2019-08-06 14:06:58.640625,226.97
2019-08-06 14:06:58.656250,207.2
2019-08-06 14:06:58.671875,177.93
2019-08-06 14:06:58.687500,141.8
2019-08-06 14:06:58.703125,100.84
2019-08-06 14:06:58.718750,58.35
2019-08-06 14:06:58.734375,20.58
2019-08-06 14:06:58.750000,-5.48
2019-08-06 14:06:58.765625,-15.87
2019-08-06 14:06:58.781250,-12.16
2019-08-06 14:06:58.796875,-1.63
2019-08-06 14:06:58.812500,7.59
2019-08-06 14:06:58.828125,9.55
2019-08-06 14:06:58.843750,2.69
2019-08-06 14:06:58.859375,-10.72
2019-08-06 14:06:58.875000,-25.28
2019-08-06 14:06:58.890625,-35.2
2019-08-06 14:06:58.906250,-37.2
2019-08-06 14:06:58.921875,-31.83
2019-08-06 14:06:58.937500,-22.85
2019-08-06 14:06:58.953125,-14.98
2019-08-06 14:06:58.968750,-11.78
2019-08-06 14:06:58.984375,-14.39
2019-08-06 14:06:59.000000,-22.02
2019-08-06 14:06:59.015625,-32.36
2019-08-06 14:06:59.031250,-41.95
2019-08-06 14:06:59.046875,-48.39
2019-08-06 14:06:59.062500,-50.59
2019-08-06 14:06:59.078125,-48.61
2019-08-06 14:06:59.093750,-42.83
2019-08-06 14:06:59.109375,-33.88
2019-08-06 14:06:59.125000,-22.7
2019-08-06 14:06:59.140625,-10.91
2019-08-06 14:06:59.156250,-0.33
2019-08-06 14:06:59.171875,7.49
2019-08-06 14:06:59.187500,11.56
2019-08-06 14:06:59.203125,11.79
2019-08-06 14:06:59.218750,8.81
2019-08-06 14:06:59.234375,3.94
2019-08-06 14:06:59.250000,-1.32
2019-08-06 14:06:59.265625,-5.61
2019-08-06 14:06:59.281250,-8.05
2019-08-06 14:06:59.296875,-8.22
2019-08-06 14:06:59.312500,-6.22
2019-08-06 14:06:59.328125,-2.53
2019-08-06 14:06:59.343750,2.22
2019-08-06 14:06:59.359375,7.43
2019-08-06 14:06:59.375000,12.63
2019-08-06 14:06:59.390625,17.11
2019-08-06 14:06:59.406250,19.82
2019-08-06 14:06:59.421875,19.58
2019-08-06 14:06:59.437500,15.73
2019-08-06 14:06:59.453125,8.73
2019-08-06 14:06:59.468750,0.47
2019-08-06 14:06:59.484375,-6.08
2019-08-06 14:06:59.500000,-7.79
2019-08-06 14:06:59.515625,-2.46
2019-08-06 14:06:59.531250,10.45
2019-08-06 14:06:59.546875,29.53
2019-08-06 14:06:59.562500,51.84
2019-08-06 14:06:59.578125,73.45
2019-08-06 14:06:59.593750,90.13
2019-08-06 14:06:59.609375,98.01
2019-08-06 14:06:59.625000,94.53
2019-08-06 14:06:59.640625,79.11
2019-08-06 14:06:59.656250,53.67
2019-08-06 14:06:59.671875,22.37
2019-08-06 14:06:59.687500,-9.44
2019-08-06 14:06:59.703125,-36.7
2019-08-06 14:06:59.718750,-56.15
2019-08-06 14:06:59.734375,-66.85
2019-08-06 14:06:59.750000,-70.14
2019-08-06 14:06:59.765625,-68.37
2019-08-06 14:06:59.781250,-63.85
2019-08-06 14:06:59.796875,-58.08
2019-08-06 14:06:59.812500,-51.33
2019-08-06 14:06:59.828125,-43.0
2019-08-06 14:06:59.843750,-32.14
2019-08-06 14:06:59.859375,-18.24
2019-08-06 14:06:59.875000,-1.97
2019-08-06 14:06:59.890625,13.99
2019-08-06 14:06:59.906250,25.09
2019-08-06 14:06:59.921875,26.06
2019-08-06 14:06:59.937500,13.44
2019-08-06 14:06:59.953125,-11.92
2019-08-06 14:06:59.968750,-43.6
2019-08-06 14:06:59.984375,-70.94
2019-08-06 14:07:00.000000,-82.68
2019-08-06 14:07:00.015625,-71.62
2019-08-06 14:07:00.031250,-37.8
2019-08-06 14:07:00.046875,11.16
2019-08-06 14:07:00.062500,62.92
2019-08-06 14:07:00.078125,105.07
2019-08-06 14:07:00.093750,129.16
2019-08-06 14:07:00.109375,132.48
2019-08-06 14:07:00.125000,117.37
2019-08-06 14:07:00.140625,89.03
2019-08-06 14:07:00.156250,53.19
2019-08-06 14:07:00.171875,14.89
2019-08-06 14:07:00.187500,-21.68
2019-08-06 14:07:00.203125,-52.9
2019-08-06 14:07:00.218750,-75.83
2019-08-06 14:07:00.234375,-88.42
2019-08-06 14:07:00.250000,-90.22
2019-08-06 14:07:00.265625,-82.61
2019-08-06 14:07:00.281250,-68.5
2019-08-06 14:07:00.296875,-51.75
2019-08-06 14:07:00.312500,-35.87
2019-08-06 14:07:00.328125,-22.96
2019-08-06 14:07:00.343750,-13.31
2019-08-06 14:07:00.359375,-5.59
2019-08-06 14:07:00.375000,2.3
2019-08-06 14:07:00.390625,11.98
2019-08-06 14:07:00.406250,23.77
2019-08-06 14:07:00.421875,36.53
2019-08-06 14:07:00.437500,48.19
2019-08-06 14:07:00.453125,56.92
2019-08-06 14:07:00.468750,61.99
2019-08-06 14:07:00.484375,64.04
2019-08-06 14:07:00.500000,64.6
2019-08-06 14:07:00.515625,65.15
2019-08-06 14:07:00.531250,66.29
2019-08-06 14:07:00.546875,67.47
2019-08-06 14:07:00.562500,67.48
2019-08-06 14:07:00.578125,65.13
2019-08-06 14:07:00.593750,60.02
2019-08-06 14:07:00.609375,52.72
2019-08-06 14:07:00.625000,44.43
2019-08-06 14:07:00.640625,36.34
2019-08-06 14:07:00.656250,29.13
2019-08-06 14:07:00.671875,22.7
2019-08-06 14:07:00.687500,16.42
2019-08-06 14:07:00.703125,9.62
2019-08-06 14:07:00.718750,1.97
2019-08-06 14:07:00.734375,-6.45
2019-08-06 14:07:00.750000,-15.11
2019-08-06 14:07:00.765625,-23.45
2019-08-06 14:07:00.781250,-31.01
2019-08-06 14:07:00.796875,-37.58
2019-08-06 14:07:00.812500,-43.1
2019-08-06 14:07:00.828125,-47.35
2019-08-06 14:07:00.843750,-49.71
2019-08-06 14:07:00.859375,-49.24
2019-08-06 14:07:00.875000,-44.88
2019-08-06 14:07:00.890625,-35.91
2019-08-06 14:07:00.906250,-22.28
2019-08-06 14:07:00.921875,-4.82
2019-08-06 14:07:00.937500,14.92
2019-08-06 14:07:00.953125,35.05
2019-08-06 14:07:00.968750,53.85
2019-08-06 14:07:00.984375,70.17
2019-08-06 14:07:01.000000,83.47
2019-08-06 14:07:01.015625,93.72
2019-08-06 14:07:01.031250,101.19
2019-08-06 14:07:01.046875,106.05
2019-08-06 14:07:01.062500,108.04
2019-08-06 14:07:01.078125,106.4
2019-08-06 14:07:01.093750,100.07
2019-08-06 14:07:01.109375,88.43
2019-08-06 14:07:01.125000,71.8
2019-08-06 14:07:01.140625,51.48
2019-08-06 14:07:01.156250,29.45
2019-08-06 14:07:01.171875,7.63
2019-08-06 14:07:01.187500,-12.87
2019-08-06 14:07:01.203125,-31.98
2019-08-06 14:07:01.218750,-50.43
2019-08-06 14:07:01.234375,-69.35
2019-08-06 14:07:01.250000,-89.66
2019-08-06 14:07:01.265625,-110.44
2019-08-06 14:07:01.281250,-130.43
2019-08-06 14:07:01.296875,-148.81
2019-08-06 14:07:01.312500,-165.27
2019-08-06 14:07:01.328125,-179.05
2019-08-06 14:07:01.343750,-187.64
2019-08-06 14:07:01.359375,-187.35
2019-08-06 14:07:01.375000,-175.29
2019-08-06 14:07:01.390625,-151.39
2019-08-06 14:07:01.406250,-118.88
2019-08-06 14:07:01.421875,-83.33
2019-08-06 14:07:01.437500,-49.86
2019-08-06 14:07:01.453125,-21.26
2019-08-06 14:07:01.468750,2.46
2019-08-06 14:07:01.484375,22.89
2019-08-06 14:07:01.500000,41.36
2019-08-06 14:07:01.515625,57.38
2019-08-06 14:07:01.531250,69.18
2019-08-06 14:07:01.546875,75.31
2019-08-06 14:07:01.562500,75.65
2019-08-06 14:07:01.578125,71.68
2019-08-06 14:07:01.593750,66.19
2019-08-06 14:07:01.609375,59.98
2019-08-06 14:07:01.625000,52.75
2019-08-06 14:07:01.640625,43.28
2019-08-06 14:07:01.656250,30.23
2019-08-06 14:07:01.671875,12.71
2019-08-06 14:07:01.687500,-9.32
2019-08-06 14:07:01.703125,-34.95
2019-08-06 14:07:01.718750,-62.03
2019-08-06 14:07:01.734375,-87.51
2019-08-06 14:07:01.750000,-108.24
2019-08-06 14:07:01.765625,-121.02
2019-08-06 14:07:01.781250,-124.16
2019-08-06 14:07:01.796875,-118.34
2019-08-06 14:07:01.812500,-106.65
2019-08-06 14:07:01.828125,-93.09
2019-08-06 14:07:01.843750,-79.66
2019-08-06 14:07:01.859375,-65.95
2019-08-06 14:07:01.875000,-47.17
2019-08-06 14:07:01.890625,-18.6
2019-08-06 14:07:01.906250,22.24
2019-08-06 14:07:01.921875,72.95
2019-08-06 14:07:01.937500,126.62
2019-08-06 14:07:01.953125,173.97
2019-08-06 14:07:01.968750,204.2
2019-08-06 14:07:01.984375,213.23
2019-08-06 14:07:02.000000,203.92
2019-08-06 14:07:02.015625,183.45
2019-08-06 14:07:02.031250,159.31
2019-08-06 14:07:02.046875,136.88
2019-08-06 14:07:02.062500,118.02
2019-08-06 14:07:02.078125,102.39
2019-08-06 14:07:02.093750,89.36
2019-08-06 14:07:02.109375,79.2
2019-08-06 14:07:02.125000,73.18
2019-08-06 14:07:02.140625,71.28
2019-08-06 14:07:02.156250,70.98
2019-08-06 14:07:02.171875,67.64
2019-08-06 14:07:02.187500,56.78
2019-08-06 14:07:02.203125,36.09
2019-08-06 14:07:02.218750,7.19
2019-08-06 14:07:02.234375,-25.04
2019-08-06 14:07:02.250000,-54.52
2019-08-06 14:07:02.265625,-76.29
2019-08-06 14:07:02.281250,-88.41
2019-08-06 14:07:02.296875,-91.85
2019-08-06 14:07:02.312500,-89.49
2019-08-06 14:07:02.328125,-84.23
2019-08-06 14:07:02.343750,-77.9
2019-08-06 14:07:02.359375,-70.9
2019-08-06 14:07:02.375000,-62.8
2019-08-06 14:07:02.390625,-53.08
2019-08-06 14:07:02.406250,-41.33
2019-08-06 14:07:02.421875,-27.75
2019-08-06 14:07:02.437500,-13.16
2019-08-06 14:07:02.453125,1.27
2019-08-06 14:07:02.468750,14.39
2019-08-06 14:07:02.484375,25.12
2019-08-06 14:07:02.500000,32.59
2019-08-06 14:07:02.515625,36.18
2019-08-06 14:07:02.531250,35.72
2019-08-06 14:07:02.546875,31.75
2019-08-06 14:07:02.562500,25.42
2019-08-06 14:07:02.578125,18.1
2019-08-06 14:07:02.593750,11.29
2019-08-06 14:07:02.609375,6.02
2019-08-06 14:07:02.625000,1.84
2019-08-06 14:07:02.640625,-3.54
2019-08-06 14:07:02.656250,-13.74
2019-08-06 14:07:02.671875,-32.37
2019-08-06 14:07:02.687500,-61.16
2019-08-06 14:07:02.703125,-96.69
2019-08-06 14:07:02.718750,-132.64
2019-08-06 14:07:02.734375,-161.29
2019-08-06 14:07:02.750000,-176.22
2019-08-06 14:07:02.765625,-175.45
2019-08-06 14:07:02.781250,-161.78
2019-08-06 14:07:02.796875,-141.02
2019-08-06 14:07:02.812500,-119.59
2019-08-06 14:07:02.828125,-102.11
2019-08-06 14:07:02.843750,-90.14
2019-08-06 14:07:02.859375,-83.32
2019-08-06 14:07:02.875000,-80.49
2019-08-06 14:07:02.890625,-79.77
2019-08-06 14:07:02.906250,-78.9
2019-08-06 14:07:02.921875,-74.66
2019-08-06 14:07:02.937500,-63.12
2019-08-06 14:07:02.953125,-41.73
2019-08-06 14:07:02.968750,-11.8
2019-08-06 14:07:02.984375,20.78
2019-08-06 14:07:03.000000,47.41
2019-08-06 14:07:03.015625,61.31
2019-08-06 14:07:03.031250,62.08
2019-08-06 14:07:03.046875,56.81
2019-08-06 14:07:03.062500,55.36
2019-08-06 14:07:03.078125,66.31
2019-08-06 14:07:03.093750,92.35
2019-08-06 14:07:03.109375,128.8
2019-08-06 14:07:03.125000,166.01
2019-08-06 14:07:03.140625,194.08
2019-08-06 14:07:03.156250,204.81
2019-08-06 14:07:03.171875,199.09
2019-08-06 14:07:03.187500,182.66
2019-08-06 14:07:03.203125,162.05
2019-08-06 14:07:03.218750,141.72
2019-08-06 14:07:03.234375,123.21
2019-08-06 14:07:03.250000,106.27
2019-08-06 14:07:03.265625,90.2
2019-08-06 14:07:03.281250,74.86
2019-08-06 14:07:03.296875,60.41
2019-08-06 14:07:03.312500,46.75
2019-08-06 14:07:03.328125,32.11
2019-08-06 14:07:03.343750,14.43
2019-08-06 14:07:03.359375,-7.01
2019-08-06 14:07:03.375000,-30.97
2019-08-06 14:07:03.390625,-54.4
2019-08-06 14:07:03.406250,-74.15
2019-08-06 14:07:03.421875,-87.85
2019-08-06 14:07:03.437500,-95.0
2019-08-06 14:07:03.453125,-96.61
2019-08-06 14:07:03.468750,-95.17
2019-08-06 14:07:03.484375,-93.52
2019-08-06 14:07:03.500000,-93.66
2019-08-06 14:07:03.515625,-96.36
2019-08-06 14:07:03.531250,-100.87
2019-08-06 14:07:03.546875,-105.02
2019-08-06 14:07:03.562500,-105.76
2019-08-06 14:07:03.578125,-100.32
2019-08-06 14:07:03.593750,-87.19
2019-08-06 14:07:03.609375,-67.34
2019-08-06 14:07:03.625000,-43.72
2019-08-06 14:07:03.640625,-19.98
2019-08-06 14:07:03.656250,1.07
2019-08-06 14:07:03.671875,18.41
2019-08-06 14:07:03.687500,32.77
2019-08-06 14:07:03.703125,45.67
2019-08-06 14:07:03.718750,58.39
2019-08-06 14:07:03.734375,71.46
2019-08-06 14:07:03.750000,84.51
2019-08-06 14:07:03.765625,96.7
2019-08-06 14:07:03.781250,107.02
2019-08-06 14:07:03.796875,114.31
2019-08-06 14:07:03.812500,117.43
2019-08-06 14:07:03.828125,115.41
2019-08-06 14:07:03.843750,107.88
2019-08-06 14:07:03.859375,95.27
2019-08-06 14:07:03.875000,78.77
2019-08-06 14:07:03.890625,59.87
2019-08-06 14:07:03.906250,39.96
2019-08-06 14:07:03.921875,20.01
2019-08-06 14:07:03.937500,0.7
2019-08-06 14:07:03.953125,-17.5
2019-08-06 14:07:03.968750,-33.43
2019-08-06 14:07:03.984375,-46.01
2019-08-06 14:07:04.000000,-54.57
2019-08-06 14:07:04.015625,-59.17
2019-08-06 14:07:04.031250,-60.46
2019-08-06 14:07:04.046875,-59.32
2019-08-06 14:07:04.062500,-56.47
2019-08-06 14:07:04.078125,-52.31
2019-08-06 14:07:04.093750,-47.02
2019-08-06 14:07:04.109375,-40.68
2019-08-06 14:07:04.125000,-33.57
2019-08-06 14:07:04.140625,-26.12
2019-08-06 14:07:04.156250,-18.82
2019-08-06 14:07:04.171875,-12.09
2019-08-06 14:07:04.187500,-6.31
2019-08-06 14:07:04.203125,-1.64
2019-08-06 14:07:04.218750,2.04
2019-08-06 14:07:04.234375,5.16
2019-08-06 14:07:04.250000,8.37
2019-08-06 14:07:04.265625,12.21
2019-08-06 14:07:04.281250,16.91
2019-08-06 14:07:04.296875,22.21
2019-08-06 14:07:04.312500,27.58
2019-08-06 14:07:04.328125,32.44
2019-08-06 14:07:04.343750,36.43
2019-08-06 14:07:04.359375,39.48
2019-08-06 14:07:04.375000,41.66
2019-08-06 14:07:04.390625,42.85
2019-08-06 14:07:04.406250,42.68
2019-08-06 14:07:04.421875,40.8
2019-08-06 14:07:04.437500,37.1
2019-08-06 14:07:04.453125,31.82
2019-08-06 14:07:04.468750,25.12
2019-08-06 14:07:04.484375,16.71
2019-08-06 14:07:04.500000,5.82
2019-08-06 14:07:04.515625,-8.13
2019-08-06 14:07:04.531250,-24.75
2019-08-06 14:07:04.546875,-42.28
2019-08-06 14:07:04.562500,-58.02
2019-08-06 14:07:04.578125,-69.51
2019-08-06 14:07:04.593750,-75.39
2019-08-06 14:07:04.609375,-75.9
2019-08-06 14:07:04.625000,-72.29
2019-08-06 14:07:04.640625,-65.81
2019-08-06 14:07:04.656250,-56.95
2019-08-06 14:07:04.671875,-45.5
2019-08-06 14:07:04.687500,-31.55
2019-08-06 14:07:04.703125,-16.38
2019-08-06 14:07:04.718750,-2.61
2019-08-06 14:07:04.734375,7.17
2019-08-06 14:07:04.750000,11.51
2019-08-06 14:07:04.765625,10.61
2019-08-06 14:07:04.781250,6.09
2019-08-06 14:07:04.796875,0.49
2019-08-06 14:07:04.812500,-3.4
2019-08-06 14:07:04.828125,-3.63
2019-08-06 14:07:04.843750,0.24
2019-08-06 14:07:04.859375,6.51
2019-08-06 14:07:04.875000,12.58
2019-08-06 14:07:04.890625,15.11
2019-08-06 14:07:04.906250,10.79
2019-08-06 14:07:04.921875,-2.75
2019-08-06 14:07:04.937500,-25.65
2019-08-06 14:07:04.953125,-55.42
2019-08-06 14:07:04.968750,-87.73
2019-08-06 14:07:04.984375,-117.53
2019-08-06 14:07:05.000000,-141.02
2019-08-06 14:07:05.015625,-154.85
2019-08-06 14:07:05.031250,-157.18
2019-08-06 14:07:05.046875,-148.17
2019-08-06 14:07:05.062500,-129.55
2019-08-06 14:07:05.078125,-103.23
2019-08-06 14:07:05.093750,-70.32
2019-08-06 14:07:05.109375,-31.07
2019-08-06 14:07:05.125000,14.38
2019-08-06 14:07:05.140625,64.14
2019-08-06 14:07:05.156250,116.02
2019-08-06 14:07:05.171875,167.01
2019-08-06 14:07:05.187500,213.48
2019-08-06 14:07:05.203125,248.94
2019-08-06 14:07:05.218750,266.61
2019-08-06 14:07:05.234375,262.96
2019-08-06 14:07:05.250000,239.95
2019-08-06 14:07:05.265625,209.06
2019-08-06 14:07:05.281250,175.13
2019-08-06 14:07:05.296875,139.54
2019-08-06 14:07:05.312500,102.45
2019-08-06 14:07:05.328125,63.04
2019-08-06 14:07:05.343750,22.35
2019-08-06 14:07:05.359375,-17.27
2019-08-06 14:07:05.375000,-52.54
2019-08-06 14:07:05.390625,-80.25
2019-08-06 14:07:05.406250,-98.14
2019-08-06 14:07:05.421875,-106.68
2019-08-06 14:07:05.437500,-107.18
2019-08-06 14:07:05.453125,-101.46
2019-08-06 14:07:05.468750,-91.74
2019-08-06 14:07:05.484375,-79.81
2019-08-06 14:07:05.500000,-67.0
2019-08-06 14:07:05.515625,-54.6
2019-08-06 14:07:05.531250,-44.83
2019-08-06 14:07:05.546875,-41.13
2019-08-06 14:07:05.562500,-47.91
2019-08-06 14:07:05.578125,-67.01
2019-08-06 14:07:05.593750,-96.23
2019-08-06 14:07:05.609375,-130.0
2019-08-06 14:07:05.625000,-161.02
2019-08-06 14:07:05.640625,-182.78
2019-08-06 14:07:05.656250,-191.27
2019-08-06 14:07:05.671875,-185.55
2019-08-06 14:07:05.687500,-167.06
2019-08-06 14:07:05.703125,-138.71
2019-08-06 14:07:05.718750,-102.97
2019-08-06 14:07:05.734375,-61.84
2019-08-06 14:07:05.750000,-18.25
2019-08-06 14:07:05.765625,23.6
2019-08-06 14:07:05.781250,59.06
2019-08-06 14:07:05.796875,84.71
2019-08-06 14:07:05.812500,99.88
2019-08-06 14:07:05.828125,106.8
2019-08-06 14:07:05.843750,109.51
2019-08-06 14:07:05.859375,112.37
2019-08-06 14:07:05.875000,118.76
2019-08-06 14:07:05.890625,129.18
2019-08-06 14:07:05.906250,141.28
2019-08-06 14:07:05.921875,150.85
2019-08-06 14:07:05.937500,153.45
2019-08-06 14:07:05.953125,145.9
2019-08-06 14:07:05.968750,126.91
2019-08-06 14:07:05.984375,97.18
2019-08-06 14:07:06.000000,56.55
2019-08-06 14:07:06.015625,8.77
2019-08-06 14:07:06.031250,-39.82
2019-08-06 14:07:06.046875,-82.84
2019-08-06 14:07:06.062500,-116.23
2019-08-06 14:07:06.078125,-138.8
2019-08-06 14:07:06.093750,-150.98
2019-08-06 14:07:06.109375,-154.38
2019-08-06 14:07:06.125000,-151.16
2019-08-06 14:07:06.140625,-144.44
2019-08-06 14:07:06.156250,-136.71
2019-08-06 14:07:06.171875,-128.81
2019-08-06 14:07:06.187500,-119.02
2019-08-06 14:07:06.203125,-103.07
2019-08-06 14:07:06.218750,-76.12
2019-08-06 14:07:06.234375,-35.49
2019-08-06 14:07:06.250000,16.26
2019-08-06 14:07:06.265625,74.27
2019-08-06 14:07:06.281250,130.29
2019-08-06 14:07:06.296875,176.39
2019-08-06 14:07:06.312500,207.76
2019-08-06 14:07:06.328125,223.93
2019-08-06 14:07:06.343750,227.96
2019-08-06 14:07:06.359375,223.93
2019-08-06 14:07:06.375000,214.75
2019-08-06 14:07:06.390625,200.71
2019-08-06 14:07:06.406250,180.53
2019-08-06 14:07:06.421875,152.24
2019-08-06 14:07:06.437500,115.47
2019-08-06 14:07:06.453125,72.04
2019-08-06 14:07:06.468750,25.33
2019-08-06 14:07:06.484375,-21.41
2019-08-06 14:07:06.500000,-66.92
2019-08-06 14:07:06.515625,-109.14
2019-08-06 14:07:06.531250,-146.5
2019-08-06 14:07:06.546875,-174.45
2019-08-06 14:07:06.562500,-188.2
2019-08-06 14:07:06.578125,-185.46
2019-08-06 14:07:06.593750,-167.67
2019-08-06 14:07:06.609375,-139.33
2019-08-06 14:07:06.625000,-105.92
2019-08-06 14:07:06.640625,-72.18
2019-08-06 14:07:06.656250,-41.5
2019-08-06 14:07:06.671875,-15.94
2019-08-06 14:07:06.687500,3.9
2019-08-06 14:07:06.703125,18.9
2019-08-06 14:07:06.718750,29.71
2019-08-06 14:07:06.734375,37.02
2019-08-06 14:07:06.750000,41.65
2019-08-06 14:07:06.765625,44.37
2019-08-06 14:07:06.781250,45.71
2019-08-06 14:07:06.796875,46.16
2019-08-06 14:07:06.812500,46.24
2019-08-06 14:07:06.828125,44.97
2019-08-06 14:07:06.843750,42.45
2019-08-06 14:07:06.859375,39.04
2019-08-06 14:07:06.875000,35.55
2019-08-06 14:07:06.890625,32.99
2019-08-06 14:07:06.906250,32.28
2019-08-06 14:07:06.921875,33.95
2019-08-06 14:07:06.937500,38.04
2019-08-06 14:07:06.953125,44.06
2019-08-06 14:07:06.968750,51.29
2019-08-06 14:07:06.984375,59.04
2019-08-06 14:07:07.000000,66.48
2019-08-06 14:07:07.015625,73.04
2019-08-06 14:07:07.031250,78.48
2019-08-06 14:07:07.046875,82.6
2019-08-06 14:07:07.062500,85.07
2019-08-06 14:07:07.078125,85.35
2019-08-06 14:07:07.093750,82.82
2019-08-06 14:07:07.109375,76.98
2019-08-06 14:07:07.125000,67.91
2019-08-06 14:07:07.140625,55.98
2019-08-06 14:07:07.156250,41.96
2019-08-06 14:07:07.171875,26.86
2019-08-06 14:07:07.187500,11.6
2019-08-06 14:07:07.203125,-3.11
2019-08-06 14:07:07.218750,-16.79
2019-08-06 14:07:07.234375,-29.12
2019-08-06 14:07:07.250000,-39.77
2019-08-06 14:07:07.265625,-48.39
2019-08-06 14:07:07.281250,-54.76
2019-08-06 14:07:07.296875,-58.93
2019-08-06 14:07:07.312500,-61.19
2019-08-06 14:07:07.328125,-62.11
2019-08-06 14:07:07.343750,-62.3
2019-08-06 14:07:07.359375,-62.31
2019-08-06 14:07:07.375000,-62.34
2019-08-06 14:07:07.390625,-62.32
2019-08-06 14:07:07.406250,-61.91
2019-08-06 14:07:07.421875,-60.77
2019-08-06 14:07:07.437500,-58.68
2019-08-06 14:07:07.453125,-55.66
2019-08-06 14:07:07.468750,-51.87
2019-08-06 14:07:07.484375,-47.48
2019-08-06 14:07:07.500000,-42.56
2019-08-06 14:07:07.515625,-36.96
2019-08-06 14:07:07.531250,-30.46
2019-08-06 14:07:07.546875,-22.87
2019-08-06 14:07:07.562500,-14.1
2019-08-06 14:07:07.578125,-4.08
2019-08-06 14:07:07.593750,7.25
2019-08-06 14:07:07.609375,19.83
2019-08-06 14:07:07.625000,33.23
2019-08-06 14:07:07.640625,46.39
2019-08-06 14:07:07.656250,57.63
2019-08-06 14:07:07.671875,64.92
2019-08-06 14:07:07.687500,66.56
2019-08-06 14:07:07.703125,61.85
2019-08-06 14:07:07.718750,51.41
2019-08-06 14:07:07.734375,36.93
2019-08-06 14:07:07.750000,20.45
2019-08-06 14:07:07.765625,3.67
2019-08-06 14:07:07.781250,-12.33
2019-08-06 14:07:07.796875,-26.92
2019-08-06 14:07:07.812500,-39.41
2019-08-06 14:07:07.828125,-48.93
2019-08-06 14:07:07.843750,-54.51
2019-08-06 14:07:07.859375,-55.57
2019-08-06 14:07:07.875000,-52.27
2019-08-06 14:07:07.890625,-45.44
2019-08-06 14:07:07.906250,-36.2
2019-08-06 14:07:07.921875,-25.45
2019-08-06 14:07:07.937500,-13.63
2019-08-06 14:07:07.953125,-0.81
2019-08-06 14:07:07.968750,12.78
2019-08-06 14:07:07.984375,26.35
2019-08-06 14:07:08.000000,38.37
2019-08-06 14:07:08.015625,46.83
2019-08-06 14:07:08.031250,49.74
2019-08-06 14:07:08.046875,45.7
2019-08-06 14:07:08.062500,34.29
2019-08-06 14:07:08.078125,16.14
2019-08-06 14:07:08.093750,-7.13
2019-08-06 14:07:08.109375,-33.4
2019-08-06 14:07:08.125000,-60.44
2019-08-06 14:07:08.140625,-86.21
2019-08-06 14:07:08.156250,-108.88
2019-08-06 14:07:08.171875,-126.76
2019-08-06 14:07:08.187500,-138.41
2019-08-06 14:07:08.203125,-142.92
2019-08-06 14:07:08.218750,-140.23
2019-08-06 14:07:08.234375,-131.22
2019-08-06 14:07:08.250000,-117.43
2019-08-06 14:07:08.265625,-100.44
2019-08-06 14:07:08.281250,-81.42
2019-08-06 14:07:08.296875,-60.96
2019-08-06 14:07:08.312500,-39.59
2019-08-06 14:07:08.328125,-18.32
2019-08-06 14:07:08.343750,1.05
2019-08-06 14:07:08.359375,16.22
2019-08-06 14:07:08.375000,25.21
2019-08-06 14:07:08.390625,27.13
2019-08-06 14:07:08.406250,22.43
2019-08-06 14:07:08.421875,12.68
2019-08-06 14:07:08.437500,0.03
2019-08-06 14:07:08.453125,-13.27
2019-08-06 14:07:08.468750,-25.18
2019-08-06 14:07:08.484375,-34.12
2019-08-06 14:07:08.500000,-39.27
2019-08-06 14:07:08.515625,-40.84
2019-08-06 14:07:08.531250,-40.02
2019-08-06 14:07:08.546875,-38.39
2019-08-06 14:07:08.562500,-37.07
2019-08-06 14:07:08.578125,-36.0
2019-08-06 14:07:08.593750,-33.81
2019-08-06 14:07:08.609375,-28.62
2019-08-06 14:07:08.625000,-19.22
2019-08-06 14:07:08.640625,-5.91
2019-08-06 14:07:08.656250,9.52
2019-08-06 14:07:08.671875,24.62
2019-08-06 14:07:08.687500,37.46
2019-08-06 14:07:08.703125,47.36
2019-08-06 14:07:08.718750,54.74
2019-08-06 14:07:08.734375,60.49
2019-08-06 14:07:08.750000,65.26
2019-08-06 14:07:08.765625,69.3
2019-08-06 14:07:08.781250,72.62
2019-08-06 14:07:08.796875,75.32
2019-08-06 14:07:08.812500,77.63
2019-08-06 14:07:08.828125,79.58
2019-08-06 14:07:08.843750,80.59
2019-08-06 14:07:08.859375,79.27
2019-08-06 14:07:08.875000,73.88
2019-08-06 14:07:08.890625,63.21
2019-08-06 14:07:08.906250,47.59
2019-08-06 14:07:08.921875,29.22
2019-08-06 14:07:08.937500,11.75
2019-08-06 14:07:08.953125,-1.12
2019-08-06 14:07:08.968750,-7.0
2019-08-06 14:07:08.984375,-5.65
2019-08-06 14:07:09.000000,1.04
2019-08-06 14:07:09.015625,10.03
2019-08-06 14:07:09.031250,18.45
2019-08-06 14:07:09.046875,24.57
2019-08-06 14:07:09.062500,28.01
2019-08-06 14:07:09.078125,29.4
2019-08-06 14:07:09.093750,29.52
2019-08-06 14:07:09.109375,28.81
2019-08-06 14:07:09.125000,27.25
2019-08-06 14:07:09.140625,24.65
2019-08-06 14:07:09.156250,21.15
2019-08-06 14:07:09.171875,17.26
2019-08-06 14:07:09.187500,13.76
2019-08-06 14:07:09.203125,11.26
2019-08-06 14:07:09.218750,9.82
2019-08-06 14:07:09.234375,8.93
2019-08-06 14:07:09.250000,7.81
2019-08-06 14:07:09.265625,5.84
2019-08-06 14:07:09.281250,2.92
2019-08-06 14:07:09.296875,-0.35
2019-08-06 14:07:09.312500,-3.06
2019-08-06 14:07:09.328125,-4.29
2019-08-06 14:07:09.343750,-3.61
2019-08-06 14:07:09.359375,-1.19
2019-08-06 14:07:09.375000,2.3
2019-08-06 14:07:09.390625,6.02
2019-08-06 14:07:09.406250,9.38
2019-08-06 14:07:09.421875,12.17
2019-08-06 14:07:09.437500,14.71
2019-08-06 14:07:09.453125,17.52
2019-08-06 14:07:09.468750,21.1
2019-08-06 14:07:09.484375,25.58
2019-08-06 14:07:09.500000,30.75
2019-08-06 14:07:09.515625,36.1
2019-08-06 14:07:09.531250,41.15
2019-08-06 14:07:09.546875,45.66
2019-08-06 14:07:09.562500,49.64
2019-08-06 14:07:09.578125,53.51
2019-08-06 14:07:09.593750,57.81
2019-08-06 14:07:09.609375,63.0
2019-08-06 14:07:09.625000,69.36
2019-08-06 14:07:09.640625,76.83
2019-08-06 14:07:09.656250,85.14
2019-08-06 14:07:09.671875,93.75
2019-08-06 14:07:09.687500,102.05
2019-08-06 14:07:09.703125,109.38
2019-08-06 14:07:09.718750,115.18
2019-08-06 14:07:09.734375,118.96
2019-08-06 14:07:09.750000,120.3
2019-08-06 14:07:09.765625,118.76
2019-08-06 14:07:09.781250,113.8
2019-08-06 14:07:09.796875,104.74
2019-08-06 14:07:09.812500,91.03
2019-08-06 14:07:09.828125,72.46
2019-08-06 14:07:09.843750,49.52
2019-08-06 14:07:09.859375,23.47
2019-08-06 14:07:09.875000,-3.83
2019-08-06 14:07:09.890625,-30.34
2019-08-06 14:07:09.906250,-54.24
2019-08-06 14:07:09.921875,-74.28
2019-08-06 14:07:09.937500,-89.91
2019-08-06 14:07:09.953125,-101.14
2019-08-06 14:07:09.968750,-108.51
2019-08-06 14:07:09.984375,-112.97
2019-08-06 14:07:10.000000,-115.7
2019-08-06 14:07:10.015625,-117.92
2019-08-06 14:07:10.031250,-120.51
2019-08-06 14:07:10.046875,-123.64
2019-08-06 14:07:10.062500,-126.77
2019-08-06 14:07:10.078125,-128.88
2019-08-06 14:07:10.093750,-129.06
2019-08-06 14:07:10.109375,-126.97
2019-08-06 14:07:10.125000,-123.0
2019-08-06 14:07:10.140625,-118.01
2019-08-06 14:07:10.156250,-112.85
2019-08-06 14:07:10.171875,-107.86
2019-08-06 14:07:10.187500,-102.87
2019-08-06 14:07:10.203125,-97.38
2019-08-06 14:07:10.218750,-90.98
2019-08-06 14:07:10.234375,-83.63
2019-08-06 14:07:10.250000,-75.71
2019-08-06 14:07:10.265625,-67.77
2019-08-06 14:07:10.281250,-60.29
2019-08-06 14:07:10.296875,-53.54
2019-08-06 14:07:10.312500,-47.58
2019-08-06 14:07:10.328125,-42.44
2019-08-06 14:07:10.343750,-38.24
2019-08-06 14:07:10.359375,-35.24
2019-08-06 14:07:10.375000,-33.73
2019-08-06 14:07:10.390625,-33.82
2019-08-06 14:07:10.406250,-35.26
2019-08-06 14:07:10.421875,-37.28
2019-08-06 14:07:10.437500,-38.79
2019-08-06 14:07:10.453125,-38.67
2019-08-06 14:07:10.468750,-36.19
2019-08-06 14:07:10.484375,-31.23
2019-08-06 14:07:10.500000,-24.34
2019-08-06 14:07:10.515625,-16.53
2019-08-06 14:07:10.531250,-8.86
2019-08-06 14:07:10.546875,-2.07
2019-08-06 14:07:10.562500,3.57
2019-08-06 14:07:10.578125,8.26
2019-08-06 14:07:10.593750,12.5
2019-08-06 14:07:10.609375,16.89
2019-08-06 14:07:10.625000,21.99
2019-08-06 14:07:10.640625,28.22
2019-08-06 14:07:10.656250,35.83
2019-08-06 14:07:10.671875,44.84
2019-08-06 14:07:10.687500,54.91
2019-08-06 14:07:10.703125,65.33
2019-08-06 14:07:10.718750,75.03
2019-08-06 14:07:10.734375,82.77
2019-08-06 14:07:10.750000,87.41
2019-08-06 14:07:10.765625,88.1
2019-08-06 14:07:10.781250,84.43
2019-08-06 14:07:10.796875,76.51
2019-08-06 14:07:10.812500,64.93
2019-08-06 14:07:10.828125,50.7
2019-08-06 14:07:10.843750,35.04
2019-08-06 14:07:10.859375,19.22
2019-08-06 14:07:10.875000,4.51
2019-08-06 14:07:10.890625,-8.01
2019-08-06 14:07:10.906250,-17.46
2019-08-06 14:07:10.921875,-23.26
2019-08-06 14:07:10.937500,-25.12
2019-08-06 14:07:10.953125,-23.07
2019-08-06 14:07:10.968750,-17.64
2019-08-06 14:07:10.984375,-9.83
2019-08-06 14:07:11.000000,-1.05
2019-08-06 14:07:11.015625,7.26
2019-08-06 14:07:11.031250,13.85
2019-08-06 14:07:11.046875,17.98
2019-08-06 14:07:11.062500,19.42
2019-08-06 14:07:11.078125,18.61
2019-08-06 14:07:11.093750,16.47
2019-08-06 14:07:11.109375,14.03
2019-08-06 14:07:11.125000,11.91
2019-08-06 14:07:11.140625,10.28
2019-08-06 14:07:11.156250,8.99
2019-08-06 14:07:11.171875,7.64
2019-08-06 14:07:11.187500,6.04
2019-08-06 14:07:11.203125,4.09
2019-08-06 14:07:11.218750,2.26
2019-08-06 14:07:11.234375,1.43
2019-08-06 14:07:11.250000,2.2
2019-08-06 14:07:11.265625,4.08
2019-08-06 14:07:11.281250,5.6
2019-08-06 14:07:11.296875,5.25
2019-08-06 14:07:11.312500,2.04
2019-08-06 14:07:11.328125,-3.38
2019-08-06 14:07:11.343750,-9.52
2019-08-06 14:07:11.359375,-14.12
2019-08-06 14:07:11.375000,-15.25
2019-08-06 14:07:11.390625,-12.73
2019-08-06 14:07:11.406250,-8.72
2019-08-06 14:07:11.421875,-6.67
2019-08-06 14:07:11.437500,-9.19
2019-08-06 14:07:11.453125,-17.13
2019-08-06 14:07:11.468750,-28.46
2019-08-06 14:07:11.484375,-40.08
2019-08-06 14:07:11.500000,-48.08
2019-08-06 14:07:11.515625,-48.57
2019-08-06 14:07:11.531250,-38.67
2019-08-06 14:07:11.546875,-17.39
2019-08-06 14:07:11.562500,14.91
2019-08-06 14:07:11.578125,57.09
2019-08-06 14:07:11.593750,106.58
2019-08-06 14:07:11.609375,160.08
2019-08-06 14:07:11.625000,207.0
2019-08-06 14:07:11.640625,233.09
2019-08-06 14:07:11.656250,229.12
2019-08-06 14:07:11.671875,197.72
2019-08-06 14:07:11.687500,150.25
2019-08-06 14:07:11.703125,99.15
2019-08-06 14:07:11.718750,55.68
2019-08-06 14:07:11.734375,20.03
2019-08-06 14:07:11.750000,-9.01
2019-08-06 14:07:11.765625,-32.77
2019-08-06 14:07:11.781250,-51.58
2019-08-06 14:07:11.796875,-64.96
2019-08-06 14:07:11.812500,-71.27
2019-08-06 14:07:11.828125,-71.26
2019-08-06 14:07:11.843750,-67.57
2019-08-06 14:07:11.859375,-63.34
2019-08-06 14:07:11.875000,-61.45
2019-08-06 14:07:11.890625,-62.67
2019-08-06 14:07:11.906250,-66.67
2019-08-06 14:07:11.921875,-71.8
2019-08-06 14:07:11.937500,-75.56
2019-08-06 14:07:11.953125,-75.9
2019-08-06 14:07:11.968750,-72.58
2019-08-06 14:07:11.984375,-66.79
2019-08-06 14:07:12.000000,-60.18
2019-08-06 14:07:12.015625,-54.38
2019-08-06 14:07:12.031250,-49.71
2019-08-06 14:07:12.046875,-46.02
2019-08-06 14:07:12.062500,-42.53
2019-08-06 14:07:12.078125,-38.07
2019-08-06 14:07:12.093750,-31.87
2019-08-06 14:07:12.109375,-24.22
2019-08-06 14:07:12.125000,-16.2
2019-08-06 14:07:12.140625,-9.0
2019-08-06 14:07:12.156250,-3.65
2019-08-06 14:07:12.171875,-0.24
2019-08-06 14:07:12.187500,1.53
2019-08-06 14:07:12.203125,2.27
2019-08-06 14:07:12.218750,2.82
2019-08-06 14:07:12.234375,3.77
2019-08-06 14:07:12.250000,5.17
2019-08-06 14:07:12.265625,6.64
2019-08-06 14:07:12.281250,7.74
2019-08-06 14:07:12.296875,8.12
2019-08-06 14:07:12.312500,7.87
2019-08-06 14:07:12.328125,7.22
2019-08-06 14:07:12.343750,6.43
2019-08-06 14:07:12.359375,5.72
2019-08-06 14:07:12.375000,5.17
2019-08-06 14:07:12.390625,4.62
2019-08-06 14:07:12.406250,3.9
2019-08-06 14:07:12.421875,2.93
2019-08-06 14:07:12.437500,1.8
2019-08-06 14:07:12.453125,0.78
2019-08-06 14:07:12.468750,0.11
2019-08-06 14:07:12.484375,-0.13
2019-08-06 14:07:12.500000,-0.01
2019-08-06 14:07:12.515625,0.37
2019-08-06 14:07:12.531250,0.85
2019-08-06 14:07:12.546875,1.39
2019-08-06 14:07:12.562500,1.98
2019-08-06 14:07:12.578125,2.66
2019-08-06 14:07:12.593750,3.38
2019-08-06 14:07:12.609375,4.11
2019-08-06 14:07:12.625000,4.77
2019-08-06 14:07:12.640625,5.26
2019-08-06 14:07:12.656250,5.56
2019-08-06 14:07:12.671875,5.63
2019-08-06 14:07:12.687500,5.45
2019-08-06 14:07:12.703125,5.04
2019-08-06 14:07:12.718750,4.47
2019-08-06 14:07:12.734375,3.81
2019-08-06 14:07:12.750000,3.15
2019-08-06 14:07:12.765625,2.55
2019-08-06 14:07:12.781250,2.03
2019-08-06 14:07:12.796875,1.58
2019-08-06 14:07:12.812500,1.2
2019-08-06 14:07:12.828125,0.94
2019-08-06 14:07:12.843750,0.83
2019-08-06 14:07:12.859375,0.89
2019-08-06 14:07:12.875000,1.08
2019-08-06 14:07:12.890625,1.29
2019-08-06 14:07:12.906250,1.37
2019-08-06 14:07:12.921875,1.24
2019-08-06 14:07:12.937500,0.91
2019-08-06 14:07:12.953125,0.46
2019-08-06 14:07:12.968750,0.04
2019-08-06 14:07:12.984375,-0.25
2019-08-06 14:07:13.000000,-0.37
2019-08-06 14:07:13.015625,-0.36
2019-08-06 14:07:13.031250,-0.26
2019-08-06 14:07:13.046875,-0.07
2019-08-06 14:07:13.062500,0.21
2019-08-06 14:07:13.078125,0.64
2019-08-06 14:07:13.093750,1.21
2019-08-06 14:07:13.109375,1.85
2019-08-06 14:07:13.125000,2.45
2019-08-06 14:07:13.140625,2.89
2019-08-06 14:07:13.156250,3.1
2019-08-06 14:07:13.171875,3.07
2019-08-06 14:07:13.187500,2.84
2019-08-06 14:07:13.203125,2.49
2019-08-06 14:07:13.218750,2.07
2019-08-06 14:07:13.234375,1.67
2019-08-06 14:07:13.250000,1.3
2019-08-06 14:07:13.265625,0.99
2019-08-06 14:07:13.281250,0.72
2019-08-06 14:07:13.296875,0.48
2019-08-06 14:07:13.312500,0.26
2019-08-06 14:07:13.328125,0.07
2019-08-06 14:07:13.343750,-0.06
2019-08-06 14:07:13.359375,-0.07
2019-08-06 14:07:13.375000,0.1
2019-08-06 14:07:13.390625,0.46
2019-08-06 14:07:13.406250,0.98
2019-08-06 14:07:13.421875,1.63
2019-08-06 14:07:13.437500,2.34
2019-08-06 14:07:13.453125,3.05
2019-08-06 14:07:13.468750,3.68
2019-08-06 14:07:13.484375,4.18
2019-08-06 14:07:13.500000,4.47
2019-08-06 14:07:13.515625,4.56
2019-08-06 14:07:13.531250,4.49
2019-08-06 14:07:13.546875,4.39
2019-08-06 14:07:13.562500,4.33
2019-08-06 14:07:13.578125,4.35
2019-08-06 14:07:13.593750,4.42
2019-08-06 14:07:13.609375,4.44
2019-08-06 14:07:13.625000,4.31
2019-08-06 14:07:13.640625,4.0
2019-08-06 14:07:13.656250,3.56
2019-08-06 14:07:13.671875,3.04
2019-08-06 14:07:13.687500,2.49
2019-08-06 14:07:13.703125,1.9
2019-08-06 14:07:13.718750,1.24
2019-08-06 14:07:13.734375,0.52
2019-08-06 14:07:13.750000,-0.24
2019-08-06 14:07:13.765625,-0.98
2019-08-06 14:07:13.781250,-1.7
2019-08-06 14:07:13.796875,-2.4
2019-08-06 14:07:13.812500,-3.09
2019-08-06 14:07:13.828125,-3.77
2019-08-06 14:07:13.843750,-4.32
2019-08-06 14:07:13.859375,-4.6
2019-08-06 14:07:13.875000,-4.5
2019-08-06 14:07:13.890625,-4.04
2019-08-06 14:07:13.906250,-3.34
2019-08-06 14:07:13.921875,-2.64
2019-08-06 14:07:13.937500,-2.09
2019-08-06 14:07:13.953125,-1.73
2019-08-06 14:07:13.968750,-1.48
2019-08-06 14:07:13.984375,-1.18
2019-08-06 14:07:14.000000,-0.7
2019-08-06 14:07:14.015625,-0.0
2019-08-06 14:07:14.031250,0.88
2019-08-06 14:07:14.046875,1.86
2019-08-06 14:07:14.062500,2.86
2019-08-06 14:07:14.078125,3.83
2019-08-06 14:07:14.093750,4.73
2019-08-06 14:07:14.109375,5.49
2019-08-06 14:07:14.125000,6.06
2019-08-06 14:07:14.140625,6.36
2019-08-06 14:07:14.156250,6.36
2019-08-06 14:07:14.171875,6.09
2019-08-06 14:07:14.187500,5.59
2019-08-06 14:07:14.203125,4.94
2019-08-06 14:07:14.218750,4.24
2019-08-06 14:07:14.234375,3.62
2019-08-06 14:07:14.250000,3.16
2019-08-06 14:07:14.265625,2.92
2019-08-06 14:07:14.281250,2.83
2019-08-06 14:07:14.296875,2.79
2019-08-06 14:07:14.312500,2.67
2019-08-06 14:07:14.328125,2.35
2019-08-06 14:07:14.343750,1.85
2019-08-06 14:07:14.359375,1.26
2019-08-06 14:07:14.375000,0.71
2019-08-06 14:07:14.390625,0.28
2019-08-06 14:07:14.406250,-0.01
2019-08-06 14:07:14.421875,-0.21
2019-08-06 14:07:14.437500,-0.44
2019-08-06 14:07:14.453125,-0.76
2019-08-06 14:07:14.468750,-1.16
2019-08-06 14:07:14.484375,-1.55
2019-08-06 14:07:14.500000,-1.85
2019-08-06 14:07:14.515625,-1.99
2019-08-06 14:07:14.531250,-2.0
2019-08-06 14:07:14.546875,-2.01
2019-08-06 14:07:14.562500,-2.13
2019-08-06 14:07:14.578125,-2.46
2019-08-06 14:07:14.593750,-2.96
2019-08-06 14:07:14.609375,-3.51
2019-08-06 14:07:14.625000,-3.96
2019-08-06 14:07:14.640625,-4.2
2019-08-06 14:07:14.656250,-4.17
2019-08-06 14:07:14.671875,-3.93
2019-08-06 14:07:14.687500,-3.55
2019-08-06 14:07:14.703125,-3.09
2019-08-06 14:07:14.718750,-2.57
2019-08-06 14:07:14.734375,-1.96
2019-08-06 14:07:14.750000,-1.29
2019-08-06 14:07:14.765625,-0.59
2019-08-06 14:07:14.781250,0.08
2019-08-06 14:07:14.796875,0.66
2019-08-06 14:07:14.812500,1.1
2019-08-06 14:07:14.828125,1.36
2019-08-06 14:07:14.843750,1.44
2019-08-06 14:07:14.859375,1.25
2019-08-06 14:07:14.875000,0.74
2019-08-06 14:07:14.890625,-0.27
2019-08-06 14:07:14.906250,-1.87
2019-08-06 14:07:14.921875,-4.13
2019-08-06 14:07:14.937500,-7.01
2019-08-06 14:07:14.953125,-10.35
2019-08-06 14:07:14.968750,-13.86
2019-08-06 14:07:14.984375,-17.23
2019-08-06 14:07:15.000000,-20.13
2019-08-06 14:07:15.015625,-22.25
2019-08-06 14:07:15.031250,-23.37
2019-08-06 14:07:15.046875,-23.37
2019-08-06 14:07:15.062500,-22.3
2019-08-06 14:07:15.078125,-20.36
2019-08-06 14:07:15.093750,-17.88
2019-08-06 14:07:15.109375,-15.27
2019-08-06 14:07:15.125000,-12.91
2019-08-06 14:07:15.140625,-11.09
2019-08-06 14:07:15.156250,-9.9
2019-08-06 14:07:15.171875,-9.3
2019-08-06 14:07:15.187500,-9.07
2019-08-06 14:07:15.203125,-8.92
2019-08-06 14:07:15.218750,-8.58
2019-08-06 14:07:15.234375,-7.85
2019-08-06 14:07:15.250000,-6.63
2019-08-06 14:07:15.265625,-4.97
2019-08-06 14:07:15.281250,-3.02
2019-08-06 14:07:15.296875,-0.97
2019-08-06 14:07:15.312500,1.01
2019-08-06 14:07:15.328125,2.8
2019-08-06 14:07:15.343750,4.34
2019-08-06 14:07:15.359375,5.53
2019-08-06 14:07:15.375000,6.34
2019-08-06 14:07:15.390625,6.75
2019-08-06 14:07:15.406250,6.82
2019-08-06 14:07:15.421875,6.73
2019-08-06 14:07:15.437500,6.77
2019-08-06 14:07:15.453125,7.28
2019-08-06 14:07:15.468750,8.51
2019-08-06 14:07:15.484375,10.56
2019-08-06 14:07:15.500000,13.32
2019-08-06 14:07:15.515625,16.6
2019-08-06 14:07:15.531250,20.16
2019-08-06 14:07:15.546875,23.86
2019-08-06 14:07:15.562500,27.53
2019-08-06 14:07:15.578125,30.83
2019-08-06 14:07:15.593750,33.04
2019-08-06 14:07:15.609375,33.17
2019-08-06 14:07:15.625000,30.2
2019-08-06 14:07:15.640625,23.55
2019-08-06 14:07:15.656250,13.4
2019-08-06 14:07:15.671875,0.7
2019-08-06 14:07:15.687500,-13.1
2019-08-06 14:07:15.703125,-26.7
2019-08-06 14:07:15.718750,-39.44
2019-08-06 14:07:15.734375,-51.27
2019-08-06 14:07:15.750000,-62.41
2019-08-06 14:07:15.765625,-72.75
2019-08-06 14:07:15.781250,-81.49
2019-08-06 14:07:15.796875,-87.2
2019-08-06 14:07:15.812500,-88.37
2019-08-06 14:07:15.828125,-84.04
2019-08-06 14:07:15.843750,-74.26
2019-08-06 14:07:15.859375,-60.15
2019-08-06 14:07:15.875000,-43.38
2019-08-06 14:07:15.890625,-25.72
2019-08-06 14:07:15.906250,-8.55
2019-08-06 14:07:15.921875,7.23
2019-08-06 14:07:15.937500,21.1
2019-08-06 14:07:15.953125,32.65
2019-08-06 14:07:15.968750,41.54
2019-08-06 14:07:15.984375,47.57
2019-08-06 14:07:16.000000,50.83
2019-08-06 14:07:16.015625,51.89
2019-08-06 14:07:16.031250,51.53
2019-08-06 14:07:16.046875,50.51
2019-08-06 14:07:16.062500,49.22
2019-08-06 14:07:16.078125,47.63
2019-08-06 14:07:16.093750,45.41
2019-08-06 14:07:16.109375,42.32
2019-08-06 14:07:16.125000,38.61
2019-08-06 14:07:16.140625,35.1
2019-08-06 14:07:16.156250,33.0
2019-08-06 14:07:16.171875,33.44
2019-08-06 14:07:16.187500,37.15
2019-08-06 14:07:16.203125,44.31
2019-08-06 14:07:16.218750,54.47
2019-08-06 14:07:16.234375,66.7
2019-08-06 14:07:16.250000,79.66
2019-08-06 14:07:16.265625,91.64
2019-08-06 14:07:16.281250,100.82
2019-08-06 14:07:16.296875,105.57
2019-08-06 14:07:16.312500,104.86
2019-08-06 14:07:16.328125,98.55
2019-08-06 14:07:16.343750,87.36
2019-08-06 14:07:16.359375,72.59
2019-08-06 14:07:16.375000,55.71
2019-08-06 14:07:16.390625,38.1
2019-08-06 14:07:16.406250,20.86
2019-08-06 14:07:16.421875,4.94
2019-08-06 14:07:16.437500,-8.84
2019-08-06 14:07:16.453125,-19.82
2019-08-06 14:07:16.468750,-27.64
2019-08-06 14:07:16.484375,-32.37
2019-08-06 14:07:16.500000,-34.48
2019-08-06 14:07:16.515625,-34.7
2019-08-06 14:07:16.531250,-33.81
2019-08-06 14:07:16.546875,-32.43
2019-08-06 14:07:16.562500,-30.98
2019-08-06 14:07:16.578125,-29.72
2019-08-06 14:07:16.593750,-28.78
2019-08-06 14:07:16.609375,-28.25
2019-08-06 14:07:16.625000,-28.11
2019-08-06 14:07:16.640625,-28.32
2019-08-06 14:07:16.656250,-28.79
2019-08-06 14:07:16.671875,-29.45
2019-08-06 14:07:16.687500,-30.3
2019-08-06 14:07:16.703125,-31.37
2019-08-06 14:07:16.718750,-32.71
2019-08-06 14:07:16.734375,-34.31
2019-08-06 14:07:16.750000,-36.1
2019-08-06 14:07:16.765625,-38.0
2019-08-06 14:07:16.781250,-40.0
2019-08-06 14:07:16.796875,-42.17
2019-08-06 14:07:16.812500,-44.56
2019-08-06 14:07:16.828125,-47.04
2019-08-06 14:07:16.843750,-49.27
2019-08-06 14:07:16.859375,-50.56
2019-08-06 14:07:16.875000,-50.11
2019-08-06 14:07:16.890625,-47.32
2019-08-06 14:07:16.906250,-41.94
2019-08-06 14:07:16.921875,-34.14
2019-08-06 14:07:16.937500,-24.43
2019-08-06 14:07:16.953125,-13.35
2019-08-06 14:07:16.968750,-1.36
2019-08-06 14:07:16.984375,11.19
2019-08-06 14:07:17.000000,23.97
2019-08-06 14:07:17.015625,36.56
2019-08-06 14:07:17.031250,48.41
2019-08-06 14:07:17.046875,58.88
2019-08-06 14:07:17.062500,67.29
2019-08-06 14:07:17.078125,73.04
2019-08-06 14:07:17.093750,75.65
2019-08-06 14:07:17.109375,74.94
2019-08-06 14:07:17.125000,71.16
2019-08-06 14:07:17.140625,65.05
2019-08-06 14:07:17.156250,57.74
2019-08-06 14:07:17.171875,50.28
2019-08-06 14:07:17.187500,43.3
2019-08-06 14:07:17.203125,36.62
2019-08-06 14:07:17.218750,29.46
2019-08-06 14:07:17.234375,20.79
2019-08-06 14:07:17.250000,9.91
2019-08-06 14:07:17.265625,-3.19
2019-08-06 14:07:17.281250,-17.77
2019-08-06 14:07:17.296875,-32.49
2019-08-06 14:07:17.312500,-45.8
2019-08-06 14:07:17.328125,-56.22
2019-08-06 14:07:17.343750,-62.64
2019-08-06 14:07:17.359375,-64.48
2019-08-06 14:07:17.375000,-61.72
2019-08-06 14:07:17.390625,-55.01
2019-08-06 14:07:17.406250,-45.51
2019-08-06 14:07:17.421875,-34.62
2019-08-06 14:07:17.437500,-23.71
2019-08-06 14:07:17.453125,-13.82
2019-08-06 14:07:17.468750,-5.52
2019-08-06 14:07:17.484375,1.09
2019-08-06 14:07:17.500000,6.19
2019-08-06 14:07:17.515625,10.2
2019-08-06 14:07:17.531250,13.54
2019-08-06 14:07:17.546875,16.55
2019-08-06 14:07:17.562500,19.44
2019-08-06 14:07:17.578125,22.22
2019-08-06 14:07:17.593750,24.81
2019-08-06 14:07:17.609375,27.09
2019-08-06 14:07:17.625000,29.05
2019-08-06 14:07:17.640625,30.78
2019-08-06 14:07:17.656250,32.52
2019-08-06 14:07:17.671875,34.52
2019-08-06 14:07:17.687500,36.99
2019-08-06 14:07:17.703125,40.01
2019-08-06 14:07:17.718750,43.43
2019-08-06 14:07:17.734375,46.97
2019-08-06 14:07:17.750000,50.31
2019-08-06 14:07:17.765625,53.14
2019-08-06 14:07:17.781250,55.2
2019-08-06 14:07:17.796875,56.32
2019-08-06 14:07:17.812500,56.37
2019-08-06 14:07:17.828125,55.26
2019-08-06 14:07:17.843750,52.99
2019-08-06 14:07:17.859375,49.67
2019-08-06 14:07:17.875000,45.51
2019-08-06 14:07:17.890625,40.68
2019-08-06 14:07:17.906250,35.24
2019-08-06 14:07:17.921875,28.98
2019-08-06 14:07:17.937500,21.47
2019-08-06 14:07:17.953125,12.25
2019-08-06 14:07:17.968750,1.11
2019-08-06 14:07:17.984375,-11.71
2019-08-06 14:07:18.000000,-25.48
2019-08-06 14:07:18.015625,-39.17
2019-08-06 14:07:18.031250,-51.86
2019-08-06 14:07:18.046875,-62.96
2019-08-06 14:07:18.062500,-72.36
2019-08-06 14:07:18.078125,-80.21
2019-08-06 14:07:18.093750,-86.7
2019-08-06 14:07:18.109375,-91.77
2019-08-06 14:07:18.125000,-95.14
2019-08-06 14:07:18.140625,-96.5
2019-08-06 14:07:18.156250,-95.74
2019-08-06 14:07:18.171875,-93.12
2019-08-06 14:07:18.187500,-89.25
2019-08-06 14:07:18.203125,-84.84
2019-08-06 14:07:18.218750,-80.51
2019-08-06 14:07:18.234375,-76.61
2019-08-06 14:07:18.250000,-73.19
2019-08-06 14:07:18.265625,-70.06
2019-08-06 14:07:18.281250,-66.79
2019-08-06 14:07:18.296875,-62.73
2019-08-06 14:07:18.312500,-57.14
2019-08-06 14:07:18.328125,-49.35
2019-08-06 14:07:18.343750,-39.05
2019-08-06 14:07:18.359375,-26.59
2019-08-06 14:07:18.375000,-13.04
2019-08-06 14:07:18.390625,0.05
2019-08-06 14:07:18.406250,11.02
2019-08-06 14:07:18.421875,18.63
2019-08-06 14:07:18.437500,22.47
2019-08-06 14:07:18.453125,23.04
2019-08-06 14:07:18.468750,21.54
2019-08-06 14:07:18.484375,19.46
2019-08-06 14:07:18.500000,18.03
2019-08-06 14:07:18.515625,17.93
2019-08-06 14:07:18.531250,19.12
2019-08-06 14:07:18.546875,21.05
2019-08-06 14:07:18.562500,22.98
2019-08-06 14:07:18.578125,24.33
2019-08-06 14:07:18.593750,24.8
2019-08-06 14:07:18.609375,24.46
2019-08-06 14:07:18.625000,23.5
2019-08-06 14:07:18.640625,22.04
2019-08-06 14:07:18.656250,20.15
2019-08-06 14:07:18.671875,17.79
2019-08-06 14:07:18.687500,15.05
2019-08-06 14:07:18.703125,12.17
2019-08-06 14:07:18.718750,9.52
2019-08-06 14:07:18.734375,7.41
2019-08-06 14:07:18.750000,5.92
2019-08-06 14:07:18.765625,4.85
2019-08-06 14:07:18.781250,3.85
2019-08-06 14:07:18.796875,2.56
2019-08-06 14:07:18.812500,0.86
2019-08-06 14:07:18.828125,-1.1
2019-08-06 14:07:18.843750,-2.99
2019-08-06 14:07:18.859375,-4.48
2019-08-06 14:07:18.875000,-5.42
2019-08-06 14:07:18.890625,-5.84
2019-08-06 14:07:18.906250,-5.93
2019-08-06 14:07:18.921875,-5.86
2019-08-06 14:07:18.937500,-5.72
2019-08-06 14:07:18.953125,-5.48
2019-08-06 14:07:18.968750,-5.06
2019-08-06 14:07:18.984375,-4.37
2019-08-06 14:07:19.000000,-3.4
2019-08-06 14:07:19.015625,-2.18
2019-08-06 14:07:19.031250,-0.8
2019-08-06 14:07:19.046875,0.64
2019-08-06 14:07:19.062500,2.04
2019-08-06 14:07:19.078125,3.33
2019-08-06 14:07:19.093750,4.4
2019-08-06 14:07:19.109375,5.19
2019-08-06 14:07:19.125000,5.66
2019-08-06 14:07:19.140625,5.85
2019-08-06 14:07:19.156250,5.87
2019-08-06 14:07:19.171875,5.81
2019-08-06 14:07:19.187500,5.79
2019-08-06 14:07:19.203125,5.88
2019-08-06 14:07:19.218750,6.08
2019-08-06 14:07:19.234375,6.32
2019-08-06 14:07:19.250000,6.54
2019-08-06 14:07:19.265625,6.69
2019-08-06 14:07:19.281250,6.72
2019-08-06 14:07:19.296875,6.61
2019-08-06 14:07:19.312500,6.29
2019-08-06 14:07:19.328125,5.7
2019-08-06 14:07:19.343750,4.82
2019-08-06 14:07:19.359375,3.71
2019-08-06 14:07:19.375000,2.54
2019-08-06 14:07:19.390625,1.53
2019-08-06 14:07:19.406250,0.84
2019-08-06 14:07:19.421875,0.46
2019-08-06 14:07:19.437500,0.25
2019-08-06 14:07:19.453125,-0.01
2019-08-06 14:07:19.468750,-0.44
2019-08-06 14:07:19.484375,-1.09
2019-08-06 14:07:19.500000,-1.84
2019-08-06 14:07:19.515625,-2.52
2019-08-06 14:07:19.531250,-3.01
2019-08-06 14:07:19.546875,-3.27
2019-08-06 14:07:19.562500,-3.34
2019-08-06 14:07:19.578125,-3.3
2019-08-06 14:07:19.593750,-3.18
2019-08-06 14:07:19.609375,-2.99
2019-08-06 14:07:19.625000,-2.73
2019-08-06 14:07:19.640625,-2.36
2019-08-06 14:07:19.656250,-1.86
2019-08-06 14:07:19.671875,-1.19
2019-08-06 14:07:19.687500,-0.34
2019-08-06 14:07:19.703125,0.69
2019-08-06 14:07:19.718750,1.87
2019-08-06 14:07:19.734375,3.11
2019-08-06 14:07:19.750000,4.29
2019-08-06 14:07:19.765625,5.3
2019-08-06 14:07:19.781250,6.0
2019-08-06 14:07:19.796875,6.33
2019-08-06 14:07:19.812500,6.28
2019-08-06 14:07:19.828125,5.94
2019-08-06 14:07:19.843750,5.46
2019-08-06 14:07:19.859375,5.02
2019-08-06 14:07:19.875000,4.73
2019-08-06 14:07:19.890625,4.59
2019-08-06 14:07:19.906250,4.51
2019-08-06 14:07:19.921875,4.38
2019-08-06 14:07:19.937500,4.15
2019-08-06 14:07:19.953125,3.82
2019-08-06 14:07:19.968750,3.46
2019-08-06 14:07:19.984375,3.12
2019-08-06 14:07:20.000000,2.79
2019-08-06 14:07:20.015625,2.45
2019-08-06 14:07:20.031250,2.08
2019-08-06 14:07:20.046875,1.72
2019-08-06 14:07:20.062500,1.45
2019-08-06 14:07:20.078125,1.32
2019-08-06 14:07:20.093750,1.29
2019-08-06 14:07:20.109375,1.22
2019-08-06 14:07:20.125000,0.94
2019-08-06 14:07:20.140625,0.38
2019-08-06 14:07:20.156250,-0.39
2019-08-06 14:07:20.171875,-1.16
2019-08-06 14:07:20.187500,-1.65
2019-08-06 14:07:20.203125,-1.66
2019-08-06 14:07:20.218750,-1.18
2019-08-06 14:07:20.234375,-0.36
2019-08-06 14:07:20.250000,0.53
2019-08-06 14:07:20.265625,1.25
2019-08-06 14:07:20.281250,1.72
2019-08-06 14:07:20.296875,1.99
2019-08-06 14:07:20.312500,2.25
2019-08-06 14:07:20.328125,2.66
2019-08-06 14:07:20.343750,3.22
2019-08-06 14:07:20.359375,3.81
2019-08-06 14:07:20.375000,4.24
2019-08-06 14:07:20.390625,4.41
2019-08-06 14:07:20.406250,4.36
2019-08-06 14:07:20.421875,4.27
2019-08-06 14:07:20.437500,4.39
2019-08-06 14:07:20.453125,4.84
2019-08-06 14:07:20.468750,5.56
2019-08-06 14:07:20.484375,6.34
2019-08-06 14:07:20.500000,6.92
2019-08-06 14:07:20.515625,7.09
2019-08-06 14:07:20.531250,6.78
2019-08-06 14:07:20.546875,6.06
2019-08-06 14:07:20.562500,5.06
2019-08-06 14:07:20.578125,3.91
2019-08-06 14:07:20.593750,2.74
2019-08-06 14:07:20.609375,1.68
2019-08-06 14:07:20.625000,0.95
2019-08-06 14:07:20.640625,0.76
2019-08-06 14:07:20.656250,1.33
2019-08-06 14:07:20.671875,2.69
2019-08-06 14:07:20.687500,4.64
2019-08-06 14:07:20.703125,6.76
2019-08-06 14:07:20.718750,8.54
2019-08-06 14:07:20.734375,9.58
2019-08-06 14:07:20.750000,9.73
2019-08-06 14:07:20.765625,9.07
2019-08-06 14:07:20.781250,7.74
2019-08-06 14:07:20.796875,5.83
2019-08-06 14:07:20.812500,3.3
2019-08-06 14:07:20.828125,0.06
2019-08-06 14:07:20.843750,-3.91
2019-08-06 14:07:20.859375,-8.4
2019-08-06 14:07:20.875000,-13.0
2019-08-06 14:07:20.890625,-17.19
2019-08-06 14:07:20.906250,-20.5
2019-08-06 14:07:20.921875,-22.65
2019-08-06 14:07:20.937500,-23.55
2019-08-06 14:07:20.953125,-23.26
2019-08-06 14:07:20.968750,-21.93
2019-08-06 14:07:20.984375,-19.79
2019-08-06 14:07:21.000000,-17.09
2019-08-06 14:07:21.015625,-14.12
2019-08-06 14:07:21.031250,-11.11
2019-08-06 14:07:21.046875,-8.19
2019-08-06 14:07:21.062500,-5.31
2019-08-06 14:07:21.078125,-2.39
2019-08-06 14:07:21.093750,0.63
2019-08-06 14:07:21.109375,3.63
2019-08-06 14:07:21.125000,6.39
2019-08-06 14:07:21.140625,8.64
2019-08-06 14:07:21.156250,10.27
2019-08-06 14:07:21.171875,11.29
2019-08-06 14:07:21.187500,11.86
2019-08-06 14:07:21.203125,12.12
2019-08-06 14:07:21.218750,12.11
2019-08-06 14:07:21.234375,11.81
2019-08-06 14:07:21.250000,11.18
2019-08-06 14:07:21.265625,10.3
2019-08-06 14:07:21.281250,9.37
2019-08-06 14:07:21.296875,8.64
2019-08-06 14:07:21.312500,8.23
2019-08-06 14:07:21.328125,8.09
2019-08-06 14:07:21.343750,8.03
2019-08-06 14:07:21.359375,7.8
2019-08-06 14:07:21.375000,7.28
2019-08-06 14:07:21.390625,6.47
2019-08-06 14:07:21.406250,5.51
2019-08-06 14:07:21.421875,4.54
2019-08-06 14:07:21.437500,3.67
2019-08-06 14:07:21.453125,2.9
2019-08-06 14:07:21.468750,2.19
2019-08-06 14:07:21.484375,1.53
2019-08-06 14:07:21.500000,0.92
2019-08-06 14:07:21.515625,0.41
2019-08-06 14:07:21.531250,0.01
2019-08-06 14:07:21.546875,-0.27
2019-08-06 14:07:21.562500,-0.45
2019-08-06 14:07:21.578125,-0.57
2019-08-06 14:07:21.593750,-0.67
2019-08-06 14:07:21.609375,-0.81
2019-08-06 14:07:21.625000,-1.04
2019-08-06 14:07:21.640625,-1.42
2019-08-06 14:07:21.656250,-1.98
2019-08-06 14:07:21.671875,-2.69
2019-08-06 14:07:21.687500,-3.5
2019-08-06 14:07:21.703125,-4.25
2019-08-06 14:07:21.718750,-4.84
2019-08-06 14:07:21.734375,-5.16
2019-08-06 14:07:21.750000,-5.19
2019-08-06 14:07:21.765625,-4.98
2019-08-06 14:07:21.781250,-4.66
2019-08-06 14:07:21.796875,-4.35
2019-08-06 14:07:21.812500,-4.18
2019-08-06 14:07:21.828125,-4.21
2019-08-06 14:07:21.843750,-4.44
2019-08-06 14:07:21.859375,-4.78
2019-08-06 14:07:21.875000,-5.14
2019-08-06 14:07:21.890625,-5.41
2019-08-06 14:07:21.906250,-5.57
2019-08-06 14:07:21.921875,-5.64
2019-08-06 14:07:21.937500,-5.67
2019-08-06 14:07:21.953125,-5.72
2019-08-06 14:07:21.968750,-5.84
2019-08-06 14:07:21.984375,-6.02
2019-08-06 14:07:22.000000,-6.24
2019-08-06 14:07:22.015625,-6.45
2019-08-06 14:07:22.031250,-6.56
2019-08-06 14:07:22.046875,-6.44
2019-08-06 14:07:22.062500,-5.98
2019-08-06 14:07:22.078125,-5.11
2019-08-06 14:07:22.093750,-3.9
2019-08-06 14:07:22.109375,-2.5
2019-08-06 14:07:22.125000,-1.16
2019-08-06 14:07:22.140625,-0.03
2019-08-06 14:07:22.156250,0.77
2019-08-06 14:07:22.171875,1.28
2019-08-06 14:07:22.187500,1.54
2019-08-06 14:07:22.203125,1.63
2019-08-06 14:07:22.218750,1.57
2019-08-06 14:07:22.234375,1.37
2019-08-06 14:07:22.250000,1.06
2019-08-06 14:07:22.265625,0.66
2019-08-06 14:07:22.281250,0.25
2019-08-06 14:07:22.296875,-0.11
2019-08-06 14:07:22.312500,-0.38
2019-08-06 14:07:22.328125,-0.54
2019-08-06 14:07:22.343750,-0.57
2019-08-06 14:07:22.359375,-0.49
2019-08-06 14:07:22.375000,-0.32
2019-08-06 14:07:22.390625,-0.11
2019-08-06 14:07:22.406250,0.06
2019-08-06 14:07:22.421875,0.15
2019-08-06 14:07:22.437500,0.14
2019-08-06 14:07:22.453125,0.04
2019-08-06 14:07:22.468750,-0.08
2019-08-06 14:07:22.484375,-0.2
2019-08-06 14:07:22.500000,-0.31
2019-08-06 14:07:22.515625,-0.44
2019-08-06 14:07:22.531250,-0.6
2019-08-06 14:07:22.546875,-0.78
2019-08-06 14:07:22.562500,-0.93
2019-08-06 14:07:22.578125,-0.96
2019-08-06 14:07:22.593750,-0.82
2019-08-06 14:07:22.609375,-0.49
2019-08-06 14:07:22.625000,-0.04
2019-08-06 14:07:22.640625,0.5
2019-08-06 14:07:22.656250,1.04
2019-08-06 14:07:22.671875,1.55
2019-08-06 14:07:22.687500,1.98
2019-08-06 14:07:22.703125,2.26
2019-08-06 14:07:22.718750,2.31
2019-08-06 14:07:22.734375,2.03
2019-08-06 14:07:22.750000,1.38
2019-08-06 14:07:22.765625,0.37
2019-08-06 14:07:22.781250,-0.91
2019-08-06 14:07:22.796875,-2.34
2019-08-06 14:07:22.812500,-3.81
2019-08-06 14:07:22.828125,-5.24
2019-08-06 14:07:22.843750,-6.62
2019-08-06 14:07:22.859375,-7.98
2019-08-06 14:07:22.875000,-9.33
2019-08-06 14:07:22.890625,-10.56
2019-08-06 14:07:22.906250,-11.52
2019-08-06 14:07:22.921875,-12.0
2019-08-06 14:07:22.937500,-11.83
2019-08-06 14:07:22.953125,-10.97
2019-08-06 14:07:22.968750,-9.53
2019-08-06 14:07:22.984375,-7.71
2019-08-06 14:07:23.000000,-5.81
2019-08-06 14:07:23.015625,-4.0
2019-08-06 14:07:23.031250,-2.39
2019-08-06 14:07:23.046875,-0.98
2019-08-06 14:07:23.062500,0.27
2019-08-06 14:07:23.078125,1.33
2019-08-06 14:07:23.093750,2.13
2019-08-06 14:07:23.109375,2.59
2019-08-06 14:07:23.125000,2.69
2019-08-06 14:07:23.140625,2.49
2019-08-06 14:07:23.156250,2.16
2019-08-06 14:07:23.171875,1.85
2019-08-06 14:07:23.187500,1.66
2019-08-06 14:07:23.203125,1.59
2019-08-06 14:07:23.218750,1.57
2019-08-06 14:07:23.234375,1.5
2019-08-06 14:07:23.250000,1.33
2019-08-06 14:07:23.265625,1.06
2019-08-06 14:07:23.281250,0.77
2019-08-06 14:07:23.296875,0.49
2019-08-06 14:07:23.312500,0.29
2019-08-06 14:07:23.328125,0.18
2019-08-06 14:07:23.343750,0.18
2019-08-06 14:07:23.359375,0.27
2019-08-06 14:07:23.375000,0.45
2019-08-06 14:07:23.390625,0.67
2019-08-06 14:07:23.406250,0.88
2019-08-06 14:07:23.421875,1.01
2019-08-06 14:07:23.437500,1.03
2019-08-06 14:07:23.453125,0.93
2019-08-06 14:07:23.468750,0.78
2019-08-06 14:07:23.484375,0.63
2019-08-06 14:07:23.500000,0.58
2019-08-06 14:07:23.515625,0.62
2019-08-06 14:07:23.531250,0.71
2019-08-06 14:07:23.546875,0.75
2019-08-06 14:07:23.562500,0.63
2019-08-06 14:07:23.578125,0.35
2019-08-06 14:07:23.593750,-0.06
2019-08-06 14:07:23.609375,-0.42
2019-08-06 14:07:23.625000,-0.56
2019-08-06 14:07:23.640625,-0.37
2019-08-06 14:07:23.656250,0.13
2019-08-06 14:07:23.671875,0.78
2019-08-06 14:07:23.687500,1.35
2019-08-06 14:07:23.703125,1.63
2019-08-06 14:07:23.718750,1.54
2019-08-06 14:07:23.734375,1.06
2019-08-06 14:07:23.750000,0.3
2019-08-06 14:07:23.765625,-0.65
2019-08-06 14:07:23.781250,-1.73
2019-08-06 14:07:23.796875,-2.86
2019-08-06 14:07:23.812500,-3.93
2019-08-06 14:07:23.828125,-4.8
2019-08-06 14:07:23.843750,-5.26
2019-08-06 14:07:23.859375,-5.2
2019-08-06 14:07:23.875000,-4.59
2019-08-06 14:07:23.890625,-3.57
2019-08-06 14:07:23.906250,-2.34
2019-08-06 14:07:23.921875,-1.16
2019-08-06 14:07:23.937500,-0.19
2019-08-06 14:07:23.953125,0.54
2019-08-06 14:07:23.968750,1.11
2019-08-06 14:07:23.984375,1.67
2019-08-06 14:07:24.000000,2.35
2019-08-06 14:07:24.015625,3.19
2019-08-06 14:07:24.031250,4.14
2019-08-06 14:07:24.046875,5.05
2019-08-06 14:07:24.062500,5.74
2019-08-06 14:07:24.078125,6.08
2019-08-06 14:07:24.093750,6.0
2019-08-06 14:07:24.109375,5.53
2019-08-06 14:07:24.125000,4.73
2019-08-06 14:07:24.140625,3.66
2019-08-06 14:07:24.156250,2.4
2019-08-06 14:07:24.171875,1.02
2019-08-06 14:07:24.187500,-0.37
2019-08-06 14:07:24.203125,-1.62
2019-08-06 14:07:24.218750,-2.62
2019-08-06 14:07:24.234375,-3.28
2019-08-06 14:07:24.250000,-3.62
2019-08-06 14:07:24.265625,-3.7
2019-08-06 14:07:24.281250,-3.58
2019-08-06 14:07:24.296875,-3.33
2019-08-06 14:07:24.312500,-2.99
2019-08-06 14:07:24.328125,-2.6
2019-08-06 14:07:24.343750,-2.2
2019-08-06 14:07:24.359375,-1.87
2019-08-06 14:07:24.375000,-1.64
2019-08-06 14:07:24.390625,-1.54
2019-08-06 14:07:24.406250,-1.55
2019-08-06 14:07:24.421875,-1.62
2019-08-06 14:07:24.437500,-1.74
2019-08-06 14:07:24.453125,-1.93
2019-08-06 14:07:24.468750,-2.2
2019-08-06 14:07:24.484375,-2.53
2019-08-06 14:07:24.500000,-2.89
2019-08-06 14:07:24.515625,-3.18
2019-08-06 14:07:24.531250,-3.39
2019-08-06 14:07:24.546875,-3.5
2019-08-06 14:07:24.562500,-3.58
2019-08-06 14:07:24.578125,-3.67
2019-08-06 14:07:24.593750,-3.75
2019-08-06 14:07:24.609375,-3.75
2019-08-06 14:07:24.625000,-3.58
2019-08-06 14:07:24.640625,-3.19
2019-08-06 14:07:24.656250,-2.61
2019-08-06 14:07:24.671875,-1.99
2019-08-06 14:07:24.687500,-1.47
2019-08-06 14:07:24.703125,-1.16
2019-08-06 14:07:24.718750,-1.02
2019-08-06 14:07:24.734375,-0.89
2019-08-06 14:07:24.750000,-0.55
2019-08-06 14:07:24.765625,0.17
2019-08-06 14:07:24.781250,1.25
2019-08-06 14:07:24.796875,2.53
2019-08-06 14:07:24.812500,3.72
2019-08-06 14:07:24.828125,4.58
2019-08-06 14:07:24.843750,4.93
2019-08-06 14:07:24.859375,4.78
2019-08-06 14:07:24.875000,4.3
2019-08-06 14:07:24.890625,3.68
2019-08-06 14:07:24.906250,3.1
2019-08-06 14:07:24.921875,2.58
2019-08-06 14:07:24.937500,2.04
2019-08-06 14:07:24.953125,1.35
2019-08-06 14:07:24.968750,0.41
2019-08-06 14:07:24.984375,-0.75
2019-08-06 14:07:25.000000,-2.0
2019-08-06 14:07:25.015625,-3.12
2019-08-06 14:07:25.031250,-3.95
2019-08-06 14:07:25.046875,-4.42
2019-08-06 14:07:25.062500,-4.57
2019-08-06 14:07:25.078125,-4.48
2019-08-06 14:07:25.093750,-4.2
2019-08-06 14:07:25.109375,-3.74
2019-08-06 14:07:25.125000,-3.06
2019-08-06 14:07:25.140625,-2.15
2019-08-06 14:07:25.156250,-1.08
2019-08-06 14:07:25.171875,-0.0
2019-08-06 14:07:25.187500,0.93
2019-08-06 14:07:25.203125,1.56
2019-08-06 14:07:25.218750,1.84
2019-08-06 14:07:25.234375,1.8
2019-08-06 14:07:25.250000,1.55
2019-08-06 14:07:25.265625,1.2
2019-08-06 14:07:25.281250,0.88
2019-08-06 14:07:25.296875,0.65
2019-08-06 14:07:25.312500,0.49
2019-08-06 14:07:25.328125,0.37
2019-08-06 14:07:25.343750,0.21
2019-08-06 14:07:25.359375,-0.03
2019-08-06 14:07:25.375000,-0.34
2019-08-06 14:07:25.390625,-0.71
2019-08-06 14:07:25.406250,-1.07
2019-08-06 14:07:25.421875,-1.39
2019-08-06 14:07:25.437500,-1.65
2019-08-06 14:07:25.453125,-1.87
2019-08-06 14:07:25.468750,-2.04
2019-08-06 14:07:25.484375,-2.18
2019-08-06 14:07:25.500000,-2.33
2019-08-06 14:07:25.515625,-2.58
2019-08-06 14:07:25.531250,-3.04
2019-08-06 14:07:25.546875,-3.79
2019-08-06 14:07:25.562500,-4.83
2019-08-06 14:07:25.578125,-6.03
2019-08-06 14:07:25.593750,-7.19
2019-08-06 14:07:25.609375,-8.07
2019-08-06 14:07:25.625000,-8.48
2019-08-06 14:07:25.640625,-8.33
2019-08-06 14:07:25.656250,-7.62
2019-08-06 14:07:25.671875,-6.48
2019-08-06 14:07:25.687500,-5.04
2019-08-06 14:07:25.703125,-3.49
2019-08-06 14:07:25.718750,-1.95
2019-08-06 14:07:25.734375,-0.52
2019-08-06 14:07:25.750000,0.76
2019-08-06 14:07:25.765625,1.88
2019-08-06 14:07:25.781250,2.8
2019-08-06 14:07:25.796875,3.52
2019-08-06 14:07:25.812500,4.01
2019-08-06 14:07:25.828125,4.32
2019-08-06 14:07:25.843750,4.56
2019-08-06 14:07:25.859375,4.86
2019-08-06 14:07:25.875000,5.35
2019-08-06 14:07:25.890625,6.04
2019-08-06 14:07:25.906250,6.86
2019-08-06 14:07:25.921875,7.66
2019-08-06 14:07:25.937500,8.3
2019-08-06 14:07:25.953125,8.72
2019-08-06 14:07:25.968750,8.9
2019-08-06 14:07:25.984375,8.88
2019-08-06 14:07:26.000000,8.69
2019-08-06 14:07:26.015625,8.35
2019-08-06 14:07:26.031250,7.87
2019-08-06 14:07:26.046875,7.25
2019-08-06 14:07:26.062500,6.5
2019-08-06 14:07:26.078125,5.66
2019-08-06 14:07:26.093750,4.79
2019-08-06 14:07:26.109375,3.93
2019-08-06 14:07:26.125000,3.11
2019-08-06 14:07:26.140625,2.38
2019-08-06 14:07:26.156250,1.73
2019-08-06 14:07:26.171875,1.13
2019-08-06 14:07:26.187500,0.51
2019-08-06 14:07:26.203125,-0.2
2019-08-06 14:07:26.218750,-1.06
2019-08-06 14:07:26.234375,-2.08
2019-08-06 14:07:26.250000,-3.18
2019-08-06 14:07:26.265625,-4.26
2019-08-06 14:07:26.281250,-5.17
2019-08-06 14:07:26.296875,-5.85
2019-08-06 14:07:26.312500,-6.27
2019-08-06 14:07:26.328125,-6.46
2019-08-06 14:07:26.343750,-6.47
2019-08-06 14:07:26.359375,-6.34
2019-08-06 14:07:26.375000,-6.13
2019-08-06 14:07:26.390625,-5.95
2019-08-06 14:07:26.406250,-5.88
2019-08-06 14:07:26.421875,-5.99
2019-08-06 14:07:26.437500,-6.24
2019-08-06 14:07:26.453125,-6.51
2019-08-06 14:07:26.468750,-6.64
2019-08-06 14:07:26.484375,-6.48
2019-08-06 14:07:26.500000,-5.99
2019-08-06 14:07:26.515625,-5.22
2019-08-06 14:07:26.531250,-4.25
2019-08-06 14:07:26.546875,-3.14
2019-08-06 14:07:26.562500,-1.92
2019-08-06 14:07:26.578125,-0.61
2019-08-06 14:07:26.593750,0.73
2019-08-06 14:07:26.609375,1.99
2019-08-06 14:07:26.625000,3.02
2019-08-06 14:07:26.640625,3.71
2019-08-06 14:07:26.656250,4.09
2019-08-06 14:07:26.671875,4.24
2019-08-06 14:07:26.687500,4.3
2019-08-06 14:07:26.703125,4.38
2019-08-06 14:07:26.718750,4.54
2019-08-06 14:07:26.734375,4.76
2019-08-06 14:07:26.750000,5.0
2019-08-06 14:07:26.765625,5.2
2019-08-06 14:07:26.781250,5.35
2019-08-06 14:07:26.796875,5.42
2019-08-06 14:07:26.812500,5.38
2019-08-06 14:07:26.828125,5.21
2019-08-06 14:07:26.843750,4.91
2019-08-06 14:07:26.859375,4.51
2019-08-06 14:07:26.875000,4.07
2019-08-06 14:07:26.890625,3.67
2019-08-06 14:07:26.906250,3.35
2019-08-06 14:07:26.921875,3.18
2019-08-06 14:07:26.937500,3.1
2019-08-06 14:07:26.953125,3.02
2019-08-06 14:07:26.968750,2.8
2019-08-06 14:07:26.984375,2.34
2019-08-06 14:07:27.000000,1.6
2019-08-06 14:07:27.015625,0.67
2019-08-06 14:07:27.031250,-0.32
2019-08-06 14:07:27.046875,-1.24
2019-08-06 14:07:27.062500,-2.05
2019-08-06 14:07:27.078125,-2.76
2019-08-06 14:07:27.093750,-3.44
2019-08-06 14:07:27.109375,-4.11
2019-08-06 14:07:27.125000,-4.76
2019-08-06 14:07:27.140625,-5.32
2019-08-06 14:07:27.156250,-5.78
2019-08-06 14:07:27.171875,-6.15
2019-08-06 14:07:27.187500,-6.52
2019-08-06 14:07:27.203125,-6.94
2019-08-06 14:07:27.218750,-7.38
2019-08-06 14:07:27.234375,-7.72
2019-08-06 14:07:27.250000,-7.75
2019-08-06 14:07:27.265625,-7.32
2019-08-06 14:07:27.281250,-6.4
2019-08-06 14:07:27.296875,-5.07
2019-08-06 14:07:27.312500,-3.48
2019-08-06 14:07:27.328125,-1.83
2019-08-06 14:07:27.343750,-0.21
2019-08-06 14:07:27.359375,1.27
2019-08-06 14:07:27.375000,2.59
2019-08-06 14:07:27.390625,3.73
2019-08-06 14:07:27.406250,4.68
2019-08-06 14:07:27.421875,5.43
2019-08-06 14:07:27.437500,5.96
2019-08-06 14:07:27.453125,6.29
2019-08-06 14:07:27.468750,6.39
2019-08-06 14:07:27.484375,6.3
2019-08-06 14:07:27.500000,6.03
2019-08-06 14:07:27.515625,5.66
2019-08-06 14:07:27.531250,5.3
2019-08-06 14:07:27.546875,5.03
2019-08-06 14:07:27.562500,4.91
2019-08-06 14:07:27.578125,4.92
2019-08-06 14:07:27.593750,4.96
2019-08-06 14:07:27.609375,4.98
2019-08-06 14:07:27.625000,4.93
2019-08-06 14:07:27.640625,4.85
2019-08-06 14:07:27.656250,4.83
2019-08-06 14:07:27.671875,4.92
2019-08-06 14:07:27.687500,5.1
2019-08-06 14:07:27.703125,5.26
2019-08-06 14:07:27.718750,5.28
2019-08-06 14:07:27.734375,5.07
2019-08-06 14:07:27.750000,4.59
2019-08-06 14:07:27.765625,3.92
2019-08-06 14:07:27.781250,3.15
2019-08-06 14:07:27.796875,2.39
2019-08-06 14:07:27.812500,1.7
2019-08-06 14:07:27.828125,1.07
2019-08-06 14:07:27.843750,0.49
2019-08-06 14:07:27.859375,-0.06
2019-08-06 14:07:27.875000,-0.6
2019-08-06 14:07:27.890625,-1.11
2019-08-06 14:07:27.906250,-1.58
2019-08-06 14:07:27.921875,-2.01
2019-08-06 14:07:27.937500,-2.39
2019-08-06 14:07:27.953125,-2.73
2019-08-06 14:07:27.968750,-3.06
2019-08-06 14:07:27.984375,-3.43
2019-08-06 14:07:28.000000,-3.93
2019-08-06 14:07:28.015625,-4.63
2019-08-06 14:07:28.031250,-5.55
2019-08-06 14:07:28.046875,-6.6
2019-08-06 14:07:28.062500,-7.63
2019-08-06 14:07:28.078125,-8.4
2019-08-06 14:07:28.093750,-8.76
2019-08-06 14:07:28.109375,-8.63
2019-08-06 14:07:28.125000,-8.06
2019-08-06 14:07:28.140625,-7.19
2019-08-06 14:07:28.156250,-6.15
2019-08-06 14:07:28.171875,-5.01
2019-08-06 14:07:28.187500,-3.78
2019-08-06 14:07:28.203125,-2.47
2019-08-06 14:07:28.218750,-1.11
2019-08-06 14:07:28.234375,0.22
2019-08-06 14:07:28.250000,1.4
2019-08-06 14:07:28.265625,2.38
2019-08-06 14:07:28.281250,3.15
2019-08-06 14:07:28.296875,3.8
2019-08-06 14:07:28.312500,4.4
2019-08-06 14:07:28.328125,5.02
2019-08-06 14:07:28.343750,5.63
2019-08-06 14:07:28.359375,6.18
2019-08-06 14:07:28.375000,6.57
2019-08-06 14:07:28.390625,6.75
2019-08-06 14:07:28.406250,6.73
2019-08-06 14:07:28.421875,6.56
2019-08-06 14:07:28.437500,6.33
2019-08-06 14:07:28.453125,6.13
2019-08-06 14:07:28.468750,6.01
2019-08-06 14:07:28.484375,6.01
2019-08-06 14:07:28.500000,6.09
2019-08-06 14:07:28.515625,6.22
2019-08-06 14:07:28.531250,6.34
2019-08-06 14:07:28.546875,6.42
2019-08-06 14:07:28.562500,6.45
2019-08-06 14:07:28.578125,6.43
2019-08-06 14:07:28.593750,6.36
2019-08-06 14:07:28.609375,6.19
2019-08-06 14:07:28.625000,5.85
2019-08-06 14:07:28.640625,5.31
2019-08-06 14:07:28.656250,4.64
2019-08-06 14:07:28.671875,3.92
2019-08-06 14:07:28.687500,3.3
2019-08-06 14:07:28.703125,2.87
2019-08-06 14:07:28.718750,2.62
2019-08-06 14:07:28.734375,2.47
2019-08-06 14:07:28.750000,2.33
2019-08-06 14:07:28.765625,2.14
2019-08-06 14:07:28.781250,1.88
2019-08-06 14:07:28.796875,1.59
2019-08-06 14:07:28.812500,1.28
2019-08-06 14:07:28.828125,0.94
2019-08-06 14:07:28.843750,0.48
2019-08-06 14:07:28.859375,-0.13
2019-08-06 14:07:28.875000,-0.91
2019-08-06 14:07:28.890625,-1.81
2019-08-06 14:07:28.906250,-2.75
2019-08-06 14:07:28.921875,-3.66
2019-08-06 14:07:28.937500,-4.52
2019-08-06 14:07:28.953125,-5.33
2019-08-06 14:07:28.968750,-6.09
2019-08-06 14:07:28.984375,-6.78
2019-08-06 14:07:29.000000,-7.36
2019-08-06 14:07:29.015625,-7.73
2019-08-06 14:07:29.031250,-7.83
2019-08-06 14:07:29.046875,-7.6
2019-08-06 14:07:29.062500,-7.04
2019-08-06 14:07:29.078125,-6.18
2019-08-06 14:07:29.093750,-5.06
2019-08-06 14:07:29.109375,-3.77
2019-08-06 14:07:29.125000,-2.38
2019-08-06 14:07:29.140625,-1.0
2019-08-06 14:07:29.156250,0.32
2019-08-06 14:07:29.171875,1.51
2019-08-06 14:07:29.187500,2.54
2019-08-06 14:07:29.203125,3.37
2019-08-06 14:07:29.218750,4.01
2019-08-06 14:07:29.234375,4.42
2019-08-06 14:07:29.250000,4.58
2019-08-06 14:07:29.265625,4.47
2019-08-06 14:07:29.281250,4.11
2019-08-06 14:07:29.296875,3.57
2019-08-06 14:07:29.312500,2.98
2019-08-06 14:07:29.328125,2.48
2019-08-06 14:07:29.343750,2.18
2019-08-06 14:07:29.359375,2.11
2019-08-06 14:07:29.375000,2.23
2019-08-06 14:07:29.390625,2.43
2019-08-06 14:07:29.406250,2.6
2019-08-06 14:07:29.421875,2.66
2019-08-06 14:07:29.437500,2.6
2019-08-06 14:07:29.453125,2.44
2019-08-06 14:07:29.468750,2.24
2019-08-06 14:07:29.484375,2.05
2019-08-06 14:07:29.500000,1.9
2019-08-06 14:07:29.515625,1.77
2019-08-06 14:07:29.531250,1.65
2019-08-06 14:07:29.546875,1.55
2019-08-06 14:07:29.562500,1.47
2019-08-06 14:07:29.578125,1.47
2019-08-06 14:07:29.593750,1.59
2019-08-06 14:07:29.609375,1.87
2019-08-06 14:07:29.625000,2.3
2019-08-06 14:07:29.640625,2.8
2019-08-06 14:07:29.656250,3.29
2019-08-06 14:07:29.671875,3.66
2019-08-06 14:07:29.687500,3.87
2019-08-06 14:07:29.703125,3.95
2019-08-06 14:07:29.718750,3.93
2019-08-06 14:07:29.734375,3.84
2019-08-06 14:07:29.750000,3.66
2019-08-06 14:07:29.765625,3.3
2019-08-06 14:07:29.781250,2.7
2019-08-06 14:07:29.796875,1.85
2019-08-06 14:07:29.812500,0.84
2019-08-06 14:07:29.828125,-0.22
2019-08-06 14:07:29.843750,-1.16
2019-08-06 14:07:29.859375,-1.91
2019-08-06 14:07:29.875000,-2.45
2019-08-06 14:07:29.890625,-2.85
2019-08-06 14:07:29.906250,-3.17
2019-08-06 14:07:29.921875,-3.47
2019-08-06 14:07:29.937500,-3.76
2019-08-06 14:07:29.953125,-3.98
2019-08-06 14:07:29.968750,-4.08
2019-08-06 14:07:29.984375,-3.94
2019-08-06 14:07:30.000000,-3.54
2019-08-06 14:07:30.015625,-2.89
2019-08-06 14:07:30.031250,-2.08
2019-08-06 14:07:30.046875,-1.24
2019-08-06 14:07:30.062500,-0.49
2019-08-06 14:07:30.078125,0.1
2019-08-06 14:07:30.093750,0.56
2019-08-06 14:07:30.109375,0.94
2019-08-06 14:07:30.125000,1.3
2019-08-06 14:07:30.140625,1.68
2019-08-06 14:07:30.156250,1.98
2019-08-06 14:07:30.171875,2.12
2019-08-06 14:07:30.187500,2.03
2019-08-06 14:07:30.203125,1.76
2019-08-06 14:07:30.218750,1.43
2019-08-06 14:07:30.234375,1.16
2019-08-06 14:07:30.250000,1.02
2019-08-06 14:07:30.265625,0.97
2019-08-06 14:07:30.281250,0.93
2019-08-06 14:07:30.296875,0.8
2019-08-06 14:07:30.312500,0.59
2019-08-06 14:07:30.328125,0.37
2019-08-06 14:07:30.343750,0.3
2019-08-06 14:07:30.359375,0.48
2019-08-06 14:07:30.375000,0.92
2019-08-06 14:07:30.390625,1.51
2019-08-06 14:07:30.406250,2.09
2019-08-06 14:07:30.421875,2.48
2019-08-06 14:07:30.437500,2.58
2019-08-06 14:07:30.453125,2.44
2019-08-06 14:07:30.468750,2.16
2019-08-06 14:07:30.484375,1.9
2019-08-06 14:07:30.500000,1.79
2019-08-06 14:07:30.515625,1.85
2019-08-06 14:07:30.531250,2.01
2019-08-06 14:07:30.546875,2.16
2019-08-06 14:07:30.562500,2.17
2019-08-06 14:07:30.578125,1.97
2019-08-06 14:07:30.593750,1.55
2019-08-06 14:07:30.609375,0.95
2019-08-06 14:07:30.625000,0.24
2019-08-06 14:07:30.640625,-0.5
2019-08-06 14:07:30.656250,-1.21
2019-08-06 14:07:30.671875,-1.85
2019-08-06 14:07:30.687500,-2.39
2019-08-06 14:07:30.703125,-2.83
2019-08-06 14:07:30.718750,-3.18
2019-08-06 14:07:30.734375,-3.47
2019-08-06 14:07:30.750000,-3.76
2019-08-06 14:07:30.765625,-4.08
2019-08-06 14:07:30.781250,-4.44
2019-08-06 14:07:30.796875,-4.81
2019-08-06 14:07:30.812500,-5.1
2019-08-06 14:07:30.828125,-5.23
2019-08-06 14:07:30.843750,-5.11
2019-08-06 14:07:30.859375,-4.71
2019-08-06 14:07:30.875000,-4.0
2019-08-06 14:07:30.890625,-3.03
2019-08-06 14:07:30.906250,-1.85
2019-08-06 14:07:30.921875,-0.55
2019-08-06 14:07:30.937500,0.74
2019-08-06 14:07:30.953125,1.87
2019-08-06 14:07:30.968750,2.7
2019-08-06 14:07:30.984375,3.1
2019-08-06 14:07:31.000000,3.06
2019-08-06 14:07:31.015625,2.69
2019-08-06 14:07:31.031250,2.14
2019-08-06 14:07:31.046875,1.6
2019-08-06 14:07:31.062500,1.16
2019-08-06 14:07:31.078125,0.8
2019-08-06 14:07:31.093750,0.41
2019-08-06 14:07:31.109375,-0.12
2019-08-06 14:07:31.125000,-0.82
2019-08-06 14:07:31.140625,-1.65
2019-08-06 14:07:31.156250,-2.46
2019-08-06 14:07:31.171875,-3.14
2019-08-06 14:07:31.187500,-3.66
2019-08-06 14:07:31.203125,-4.06
2019-08-06 14:07:31.218750,-4.47
2019-08-06 14:07:31.234375,-5.0
2019-08-06 14:07:31.250000,-5.74
2019-08-06 14:07:31.265625,-6.66
2019-08-06 14:07:31.281250,-7.62
2019-08-06 14:07:31.296875,-8.41
2019-08-06 14:07:31.312500,-8.93
2019-08-06 14:07:31.328125,-9.19
2019-08-06 14:07:31.343750,-9.38
2019-08-06 14:07:31.359375,-9.84
2019-08-06 14:07:31.375000,-10.98
2019-08-06 14:07:31.390625,-13.29
2019-08-06 14:07:31.406250,-17.14
2019-08-06 14:07:31.421875,-22.77
2019-08-06 14:07:31.437500,-30.07
2019-08-06 14:07:31.453125,-38.64
2019-08-06 14:07:31.468750,-47.64
2019-08-06 14:07:31.484375,-55.87
2019-08-06 14:07:31.500000,-61.85
2019-08-06 14:07:31.515625,-64.18
2019-08-06 14:07:31.531250,-61.79
2019-08-06 14:07:31.546875,-54.23
2019-08-06 14:07:31.562500,-41.81
2019-08-06 14:07:31.578125,-25.43
2019-08-06 14:07:31.593750,-6.52
2019-08-06 14:07:31.609375,13.31
2019-08-06 14:07:31.625000,32.49
2019-08-06 14:07:31.640625,49.73
2019-08-06 14:07:31.656250,64.06
2019-08-06 14:07:31.671875,74.87
2019-08-06 14:07:31.687500,81.76
2019-08-06 14:07:31.703125,84.5
2019-08-06 14:07:31.718750,83.03
2019-08-06 14:07:31.734375,77.49
2019-08-06 14:07:31.750000,68.35
2019-08-06 14:07:31.765625,56.47
2019-08-06 14:07:31.781250,42.87
2019-08-06 14:07:31.796875,28.64
2019-08-06 14:07:31.812500,14.6
2019-08-06 14:07:31.828125,1.29
2019-08-06 14:07:31.843750,-10.89
2019-08-06 14:07:31.859375,-21.47
2019-08-06 14:07:31.875000,-29.71
2019-08-06 14:07:31.890625,-34.76
2019-08-06 14:07:31.906250,-36.01
2019-08-06 14:07:31.921875,-33.5
2019-08-06 14:07:31.937500,-27.99
2019-08-06 14:07:31.953125,-20.8
2019-08-06 14:07:31.968750,-13.35
2019-08-06 14:07:31.984375,-6.73
2019-08-06 14:07:32.000000,-1.46
2019-08-06 14:07:32.015625,2.41
2019-08-06 14:07:32.031250,5.09
2019-08-06 14:07:32.046875,6.76
2019-08-06 14:07:32.062500,7.42
2019-08-06 14:07:32.078125,7.01
2019-08-06 14:07:32.093750,5.52
2019-08-06 14:07:32.109375,3.12
2019-08-06 14:07:32.125000,0.19
2019-08-06 14:07:32.140625,-2.77
2019-08-06 14:07:32.156250,-5.3
2019-08-06 14:07:32.171875,-7.1
2019-08-06 14:07:32.187500,-8.12
2019-08-06 14:07:32.203125,-8.49
2019-08-06 14:07:32.218750,-8.38
2019-08-06 14:07:32.234375,-7.91
2019-08-06 14:07:32.250000,-7.08
2019-08-06 14:07:32.265625,-5.82
2019-08-06 14:07:32.281250,-4.07
2019-08-06 14:07:32.296875,-1.91
2019-08-06 14:07:32.312500,0.46
2019-08-06 14:07:32.328125,2.73
2019-08-06 14:07:32.343750,4.64
2019-08-06 14:07:32.359375,6.1
2019-08-06 14:07:32.375000,7.2
2019-08-06 14:07:32.390625,8.14
2019-08-06 14:07:32.406250,9.11
2019-08-06 14:07:32.421875,10.17
2019-08-06 14:07:32.437500,11.24
2019-08-06 14:07:32.453125,12.15
2019-08-06 14:07:32.468750,12.69
2019-08-06 14:07:32.484375,12.74
2019-08-06 14:07:32.500000,12.29
2019-08-06 14:07:32.515625,11.38
2019-08-06 14:07:32.531250,10.11
2019-08-06 14:07:32.546875,8.59
2019-08-06 14:07:32.562500,6.91
2019-08-06 14:07:32.578125,5.12
2019-08-06 14:07:32.593750,3.18
2019-08-06 14:07:32.609375,1.03
2019-08-06 14:07:32.625000,-1.43
2019-08-06 14:07:32.640625,-4.22
2019-08-06 14:07:32.656250,-7.27
2019-08-06 14:07:32.671875,-10.35
2019-08-06 14:07:32.687500,-13.18
2019-08-06 14:07:32.703125,-15.43
2019-08-06 14:07:32.718750,-16.79
2019-08-06 14:07:32.734375,-17.08
2019-08-06 14:07:32.750000,-16.2
2019-08-06 14:07:32.765625,-14.25
2019-08-06 14:07:32.781250,-11.44
2019-08-06 14:07:32.796875,-8.15
2019-08-06 14:07:32.812500,-4.8
2019-08-06 14:07:32.828125,-1.77
2019-08-06 14:07:32.843750,0.75
2019-08-06 14:07:32.859375,2.68
2019-08-06 14:07:32.875000,4.14
2019-08-06 14:07:32.890625,5.32
2019-08-06 14:07:32.906250,6.38
2019-08-06 14:07:32.921875,7.45
2019-08-06 14:07:32.937500,8.5
2019-08-06 14:07:32.953125,9.42
2019-08-06 14:07:32.968750,10.03
2019-08-06 14:07:32.984375,10.16
2019-08-06 14:07:33.000000,9.7
2019-08-06 14:07:33.015625,8.68
2019-08-06 14:07:33.031250,7.26
2019-08-06 14:07:33.046875,5.65
2019-08-06 14:07:33.062500,4.09
2019-08-06 14:07:33.078125,2.73
2019-08-06 14:07:33.093750,1.64
2019-08-06 14:07:33.109375,0.8
2019-08-06 14:07:33.125000,0.21
2019-08-06 14:07:33.140625,-0.17
2019-08-06 14:07:33.156250,-0.35
2019-08-06 14:07:33.171875,-0.35
2019-08-06 14:07:33.187500,-0.23
2019-08-06 14:07:33.203125,-0.02
2019-08-06 14:07:33.218750,0.23
2019-08-06 14:07:33.234375,0.54
2019-08-06 14:07:33.250000,0.93
2019-08-06 14:07:33.265625,1.41
2019-08-06 14:07:33.281250,1.95
2019-08-06 14:07:33.296875,2.45
2019-08-06 14:07:33.312500,2.85
2019-08-06 14:07:33.328125,3.08
2019-08-06 14:07:33.343750,3.19
2019-08-06 14:07:33.359375,3.21
2019-08-06 14:07:33.375000,3.24
2019-08-06 14:07:33.390625,3.32
2019-08-06 14:07:33.406250,3.48
2019-08-06 14:07:33.421875,3.7
2019-08-06 14:07:33.437500,3.9
2019-08-06 14:07:33.453125,3.97
2019-08-06 14:07:33.468750,3.77
2019-08-06 14:07:33.484375,3.22
2019-08-06 14:07:33.500000,2.27
2019-08-06 14:07:33.515625,1.04
2019-08-06 14:07:33.531250,-0.27
2019-08-06 14:07:33.546875,-1.4
2019-08-06 14:07:33.562500,-2.15
2019-08-06 14:07:33.578125,-2.46
2019-08-06 14:07:33.593750,-2.45
2019-08-06 14:07:33.609375,-2.37
2019-08-06 14:07:33.625000,-2.41
2019-08-06 14:07:33.640625,-2.74
2019-08-06 14:07:33.656250,-3.31
2019-08-06 14:07:33.671875,-3.97
2019-08-06 14:07:33.687500,-4.46
2019-08-06 14:07:33.703125,-4.55
2019-08-06 14:07:33.718750,-4.09
2019-08-06 14:07:33.734375,-3.05
2019-08-06 14:07:33.750000,-1.57
2019-08-06 14:07:33.765625,0.17
2019-08-06 14:07:33.781250,1.94
2019-08-06 14:07:33.796875,3.51
2019-08-06 14:07:33.812500,4.71
