2019-08-06 15:49:58.000000,-0.0
2019-08-06 15:49:58.015625,-0.0
2019-08-06 15:49:58.031250,-0.0
2019-08-06 15:49:58.046875,-0.0
2019-08-06 15:49:58.062500,-0.0
2019-08-06 15:49:58.078125,-0.0
2019-08-06 15:49:58.093750,-0.0
2019-08-06 15:49:58.109375,-0.0
2019-08-06 15:49:58.125000,-0.0
2019-08-06 15:49:58.140625,-0.0
2019-08-06 15:49:58.156250,0.0
2019-08-06 15:49:58.171875,0.01
2019-08-06 15:49:58.187500,0.01
2019-08-06 15:49:58.203125,-0.0
2019-08-06 15:49:58.218750,-0.03
2019-08-06 15:49:58.234375,-0.05
2019-08-06 15:49:58.250000,-0.05
2019-08-06 15:49:58.265625,0.0
2019-08-06 15:49:58.281250,0.13
2019-08-06 15:49:58.296875,0.36
2019-08-06 15:49:58.312500,0.66
2019-08-06 15:49:58.328125,1.01
2019-08-06 15:49:58.343750,1.37
2019-08-06 15:49:58.359375,1.72
2019-08-06 15:49:58.375000,2.06
2019-08-06 15:49:58.390625,2.4
2019-08-06 15:49:58.406250,2.79
2019-08-06 15:49:58.421875,3.24
2019-08-06 15:49:58.437500,3.8
2019-08-06 15:49:58.453125,4.42
2019-08-06 15:49:58.468750,5.06
2019-08-06 15:49:58.484375,5.66
2019-08-06 15:49:58.500000,6.2
2019-08-06 15:49:58.515625,6.68
2019-08-06 15:49:58.531250,7.15
2019-08-06 15:49:58.546875,7.68
2019-08-06 15:49:58.562500,8.31
2019-08-06 15:49:58.578125,9.14
2019-08-06 15:49:58.593750,10.09
2019-08-06 15:49:58.609375,11.04
2019-08-06 15:49:58.625000,11.88
2019-08-06 15:49:58.640625,12.56
2019-08-06 15:49:58.656250,13.14
2019-08-06 15:49:58.671875,13.76
2019-08-06 15:49:58.687500,14.65
2019-08-06 15:49:58.703125,15.96
2019-08-06 15:49:58.718750,17.91
2019-08-06 15:49:58.734375,20.32
2019-08-06 15:49:58.750000,22.9
2019-08-06 15:49:58.765625,25.38
2019-08-06 15:49:58.781250,27.58
2019-08-06 15:49:58.796875,29.57
2019-08-06 15:49:58.812500,31.68
2019-08-06 15:49:58.828125,34.32
2019-08-06 15:49:58.843750,37.81
2019-08-06 15:49:58.859375,42.54
2019-08-06 15:49:58.875000,48.15
2019-08-06 15:49:58.890625,54.1
2019-08-06 15:49:58.906250,59.83
2019-08-06 15:49:58.921875,64.97
2019-08-06 15:49:58.937500,69.58
2019-08-06 15:49:58.953125,74.14
2019-08-06 15:49:58.968750,79.34
2019-08-06 15:49:58.984375,85.71
2019-08-06 15:49:59.000000,93.76
2019-08-06 15:49:59.015625,103.0
2019-08-06 15:49:59.031250,112.62
2019-08-06 15:49:59.046875,121.73
2019-08-06 15:49:59.062500,129.77
2019-08-06 15:49:59.078125,136.75
2019-08-06 15:49:59.093750,143.3
2019-08-06 15:49:59.109375,150.75
2019-08-06 15:49:59.125000,157.77
2019-08-06 15:49:59.140625,166.64
2019-08-06 15:49:59.156250,177.95
2019-08-06 15:49:59.171875,191.79
2019-08-06 15:49:59.187500,206.97
2019-08-06 15:49:59.203125,220.57
2019-08-06 15:49:59.218750,228.25
2019-08-06 15:49:59.234375,225.36
2019-08-06 15:49:59.250000,208.53
2019-08-06 15:49:59.265625,176.87
2019-08-06 15:49:59.281250,132.76
2019-08-06 15:49:59.296875,80.05
2019-08-06 15:49:59.312500,23.07
2019-08-06 15:49:59.328125,-34.95
2019-08-06 15:49:59.343750,-92.44
2019-08-06 15:49:59.359375,-149.15
2019-08-06 15:49:59.375000,-205.22
2019-08-06 15:49:59.390625,-260.34
2019-08-06 15:49:59.406250,-313.69
2019-08-06 15:49:59.421875,-363.79
2019-08-06 15:49:59.437500,-409.71
2019-08-06 15:49:59.453125,-450.73
2019-08-06 15:49:59.468750,-486.27
2019-08-06 15:49:59.484375,-515.44
2019-08-06 15:49:59.500000,-536.85
2019-08-06 15:49:59.515625,-548.77
2019-08-06 15:49:59.531250,-549.44
2019-08-06 15:49:59.546875,-537.77
2019-08-06 15:49:59.562500,-513.55
2019-08-06 15:49:59.578125,-477.96
2019-08-06 15:49:59.593750,-433.12
2019-08-06 15:49:59.609375,-381.66
2019-08-06 15:49:59.625000,-326.2
2019-08-06 15:49:59.640625,-269.01
2019-08-06 15:49:59.656250,-211.78
2019-08-06 15:49:59.671875,-155.79
2019-08-06 15:49:59.687500,-102.07
2019-08-06 15:49:59.703125,-51.45
2019-08-06 15:49:59.718750,-4.94
2019-08-06 15:49:59.734375,36.61
2019-08-06 15:49:59.750000,72.53
2019-08-06 15:49:59.765625,102.55
2019-08-06 15:49:59.781250,126.82
2019-08-06 15:49:59.796875,145.83
2019-08-06 15:49:59.812500,160.31
2019-08-06 15:49:59.828125,170.95
2019-08-06 15:49:59.843750,178.39
2019-08-06 15:49:59.859375,183.03
2019-08-06 15:49:59.875000,185.14
2019-08-06 15:49:59.890625,184.96
2019-08-06 15:49:59.906250,182.76
2019-08-06 15:49:59.921875,178.89
2019-08-06 15:49:59.937500,173.74
2019-08-06 15:49:59.953125,167.74
2019-08-06 15:49:59.968750,161.24
2019-08-06 15:49:59.984375,154.47
2019-08-06 15:50:00.000000,147.58
2019-08-06 15:50:00.015625,140.62
2019-08-06 15:50:00.031250,133.63
2019-08-06 15:50:00.046875,126.65
2019-08-06 15:50:00.062500,119.73
2019-08-06 15:50:00.078125,112.92
2019-08-06 15:50:00.093750,106.29
2019-08-06 15:50:00.109375,99.92
2019-08-06 15:50:00.125000,93.83
2019-08-06 15:50:00.140625,88.03
2019-08-06 15:50:00.156250,82.52
2019-08-06 15:50:00.171875,77.3
2019-08-06 15:50:00.187500,72.36
2019-08-06 15:50:00.203125,67.75
2019-08-06 15:50:00.218750,63.45
2019-08-06 15:50:00.234375,59.5
2019-08-06 15:50:00.250000,55.93
2019-08-06 15:50:00.265625,52.74
2019-08-06 15:50:00.281250,49.87
2019-08-06 15:50:00.296875,47.17
2019-08-06 15:50:00.312500,44.47
2019-08-06 15:50:00.328125,41.5
2019-08-06 15:50:00.343750,37.95
2019-08-06 15:50:00.359375,33.45
2019-08-06 15:50:00.375000,27.75
2019-08-06 15:50:00.390625,20.66
2019-08-06 15:50:00.406250,12.13
2019-08-06 15:50:00.421875,2.15
2019-08-06 15:50:00.437500,-9.02
2019-08-06 15:50:00.453125,-20.97
2019-08-06 15:50:00.468750,-33.13
2019-08-06 15:50:00.484375,-44.76
2019-08-06 15:50:00.500000,-55.16
2019-08-06 15:50:00.515625,-63.48
2019-08-06 15:50:00.531250,-68.92
2019-08-06 15:50:00.546875,-70.9
2019-08-06 15:50:00.562500,-69.1
2019-08-06 15:50:00.578125,-63.5
2019-08-06 15:50:00.593750,-54.43
2019-08-06 15:50:00.609375,-42.51
2019-08-06 15:50:00.625000,-28.19
2019-08-06 15:50:00.640625,-12.79
2019-08-06 15:50:00.656250,2.55
2019-08-06 15:50:00.671875,16.94
2019-08-06 15:50:00.687500,29.68
2019-08-06 15:50:00.703125,40.39
2019-08-06 15:50:00.718750,48.92
2019-08-06 15:50:00.734375,55.38
2019-08-06 15:50:00.750000,59.99
2019-08-06 15:50:00.765625,63.03
2019-08-06 15:50:00.781250,64.65
2019-08-06 15:50:00.796875,65.08
2019-08-06 15:50:00.812500,64.53
2019-08-06 15:50:00.828125,63.0
2019-08-06 15:50:00.843750,60.28
2019-08-06 15:50:00.859375,56.1
2019-08-06 15:50:00.875000,50.15
2019-08-06 15:50:00.890625,42.16
2019-08-06 15:50:00.906250,31.95
2019-08-06 15:50:00.921875,19.28
2019-08-06 15:50:00.937500,4.34
2019-08-06 15:50:00.953125,-12.44
2019-08-06 15:50:00.968750,-30.56
2019-08-06 15:50:00.984375,-49.43
2019-08-06 15:50:01.000000,-68.36
2019-08-06 15:50:01.015625,-86.63
2019-08-06 15:50:01.031250,-103.44
2019-08-06 15:50:01.046875,-117.22
2019-08-06 15:50:01.062500,-127.51
2019-08-06 15:50:01.078125,-134.63
2019-08-06 15:50:01.093750,-137.82
2019-08-06 15:50:01.109375,-136.47
2019-08-06 15:50:01.125000,-130.38
2019-08-06 15:50:01.140625,-119.64
2019-08-06 15:50:01.156250,-104.73
2019-08-06 15:50:01.171875,-86.44
2019-08-06 15:50:01.187500,-65.83
2019-08-06 15:50:01.203125,-44.2
2019-08-06 15:50:01.218750,-22.22
2019-08-06 15:50:01.234375,-1.28
2019-08-06 15:50:01.250000,17.5
2019-08-06 15:50:01.265625,33.38
2019-08-06 15:50:01.281250,46.03
2019-08-06 15:50:01.296875,55.41
2019-08-06 15:50:01.312500,61.79
2019-08-06 15:50:01.328125,65.55
2019-08-06 15:50:01.343750,67.05
2019-08-06 15:50:01.359375,66.8
2019-08-06 15:50:01.375000,65.36
2019-08-06 15:50:01.390625,63.15
2019-08-06 15:50:01.406250,60.43
2019-08-06 15:50:01.421875,57.27
2019-08-06 15:50:01.437500,53.59
2019-08-06 15:50:01.453125,49.18
2019-08-06 15:50:01.468750,43.9
2019-08-06 15:50:01.484375,37.49
2019-08-06 15:50:01.500000,29.94
2019-08-06 15:50:01.515625,21.44
2019-08-06 15:50:01.531250,12.35
2019-08-06 15:50:01.546875,3.14
2019-08-06 15:50:01.562500,-5.66
2019-08-06 15:50:01.578125,-13.57
2019-08-06 15:50:01.593750,-20.15
2019-08-06 15:50:01.609375,-25.05
2019-08-06 15:50:01.625000,-28.08
2019-08-06 15:50:01.640625,-29.08
2019-08-06 15:50:01.656250,-27.99
2019-08-06 15:50:01.671875,-24.73
2019-08-06 15:50:01.687500,-19.68
2019-08-06 15:50:01.703125,-13.38
2019-08-06 15:50:01.718750,-6.54
2019-08-06 15:50:01.734375,0.02
2019-08-06 15:50:01.750000,5.56
2019-08-06 15:50:01.765625,9.54
2019-08-06 15:50:01.781250,11.84
2019-08-06 15:50:01.796875,12.77
2019-08-06 15:50:01.812500,12.87
2019-08-06 15:50:01.828125,12.7
2019-08-06 15:50:01.843750,12.68
2019-08-06 15:50:01.859375,12.81
2019-08-06 15:50:01.875000,12.71
2019-08-06 15:50:01.890625,11.88
2019-08-06 15:50:01.906250,9.95
2019-08-06 15:50:01.921875,6.99
2019-08-06 15:50:01.937500,3.59
2019-08-06 15:50:01.953125,0.65
2019-08-06 15:50:01.968750,-1.06
2019-08-06 15:50:01.984375,-1.19
2019-08-06 15:50:02.000000,-0.18
2019-08-06 15:50:02.015625,1.02
2019-08-06 15:50:02.031250,1.26
2019-08-06 15:50:02.046875,-0.21
2019-08-06 15:50:02.062500,-3.39
2019-08-06 15:50:02.078125,-7.39
2019-08-06 15:50:02.093750,-10.85
2019-08-06 15:50:02.109375,-12.7
2019-08-06 15:50:02.125000,-12.39
2019-08-06 15:50:02.140625,-10.45
2019-08-06 15:50:02.156250,-7.94
2019-08-06 15:50:02.171875,-6.09
2019-08-06 15:50:02.187500,-5.8
2019-08-06 15:50:02.203125,-7.68
2019-08-06 15:50:02.218750,-12.05
2019-08-06 15:50:02.234375,-18.71
2019-08-06 15:50:02.250000,-26.25
2019-08-06 15:50:02.265625,-31.64
2019-08-06 15:50:02.281250,-30.8
2019-08-06 15:50:02.296875,-19.9
2019-08-06 15:50:02.312500,2.49
2019-08-06 15:50:02.328125,33.88
2019-08-06 15:50:02.343750,68.17
2019-08-06 15:50:02.359375,97.91
2019-08-06 15:50:02.375000,117.24
2019-08-06 15:50:02.390625,124.03
2019-08-06 15:50:02.406250,120.53
2019-08-06 15:50:02.421875,110.43
2019-08-06 15:50:02.437500,97.47
2019-08-06 15:50:02.453125,83.74
2019-08-06 15:50:02.468750,69.41
2019-08-06 15:50:02.484375,54.04
2019-08-06 15:50:02.500000,37.75
2019-08-06 15:50:02.515625,21.78
2019-08-06 15:50:02.531250,7.62
2019-08-06 15:50:02.546875,-3.07
2019-08-06 15:50:02.562500,-10.22
2019-08-06 15:50:02.578125,-14.89
2019-08-06 15:50:02.593750,-18.57
2019-08-06 15:50:02.609375,-22.54
2019-08-06 15:50:02.625000,-27.07
2019-08-06 15:50:02.640625,-31.52
2019-08-06 15:50:02.656250,-34.8
2019-08-06 15:50:02.671875,-35.96
2019-08-06 15:50:02.687500,-34.68
2019-08-06 15:50:02.703125,-31.66
2019-08-06 15:50:02.718750,-28.0
2019-08-06 15:50:02.734375,-24.95
2019-08-06 15:50:02.750000,-23.27
2019-08-06 15:50:02.765625,-23.06
2019-08-06 15:50:02.781250,-23.72
2019-08-06 15:50:02.796875,-24.36
2019-08-06 15:50:02.812500,-24.23
2019-08-06 15:50:02.828125,-22.95
2019-08-06 15:50:02.843750,-20.8
2019-08-06 15:50:02.859375,-18.35
2019-08-06 15:50:02.875000,-16.27
2019-08-06 15:50:02.890625,-14.97
2019-08-06 15:50:02.906250,-14.47
2019-08-06 15:50:02.921875,-14.5
2019-08-06 15:50:02.937500,-14.59
2019-08-06 15:50:02.953125,-14.37
2019-08-06 15:50:02.968750,-13.66
2019-08-06 15:50:02.984375,-12.62
2019-08-06 15:50:03.000000,-11.5
2019-08-06 15:50:03.015625,-10.6
2019-08-06 15:50:03.031250,-10.13
2019-08-06 15:50:03.046875,-10.08
2019-08-06 15:50:03.062500,-10.34
2019-08-06 15:50:03.078125,-10.74
2019-08-06 15:50:03.093750,-11.14
2019-08-06 15:50:03.109375,-11.48
2019-08-06 15:50:03.125000,-11.78
2019-08-06 15:50:03.140625,-12.14
2019-08-06 15:50:03.156250,-12.64
2019-08-06 15:50:03.171875,-13.31
2019-08-06 15:50:03.187500,-14.13
2019-08-06 15:50:03.203125,-15.1
2019-08-06 15:50:03.218750,-16.21
2019-08-06 15:50:03.234375,-17.45
2019-08-06 15:50:03.250000,-18.83
2019-08-06 15:50:03.265625,-20.32
2019-08-06 15:50:03.281250,-21.95
2019-08-06 15:50:03.296875,-23.63
2019-08-06 15:50:03.312500,-25.37
2019-08-06 15:50:03.328125,-27.08
2019-08-06 15:50:03.343750,-28.83
2019-08-06 15:50:03.359375,-30.71
2019-08-06 15:50:03.375000,-32.79
2019-08-06 15:50:03.390625,-35.17
2019-08-06 15:50:03.406250,-37.83
2019-08-06 15:50:03.421875,-40.77
2019-08-06 15:50:03.437500,-43.83
2019-08-06 15:50:03.453125,-46.89
2019-08-06 15:50:03.468750,-49.76
2019-08-06 15:50:03.484375,-52.37
2019-08-06 15:50:03.500000,-54.69
2019-08-06 15:50:03.515625,-56.59
2019-08-06 15:50:03.531250,-57.83
2019-08-06 15:50:03.546875,-57.99
2019-08-06 15:50:03.562500,-56.64
2019-08-06 15:50:03.578125,-53.17
2019-08-06 15:50:03.593750,-47.1
2019-08-06 15:50:03.609375,-38.08
2019-08-06 15:50:03.625000,-26.1
2019-08-06 15:50:03.640625,-11.57
2019-08-06 15:50:03.656250,4.84
2019-08-06 15:50:03.671875,22.37
2019-08-06 15:50:03.687500,40.32
2019-08-06 15:50:03.703125,57.95
2019-08-06 15:50:03.718750,74.8
2019-08-06 15:50:03.734375,89.64
2019-08-06 15:50:03.750000,101.94
2019-08-06 15:50:03.765625,110.94
2019-08-06 15:50:03.781250,115.71
2019-08-06 15:50:03.796875,115.51
2019-08-06 15:50:03.812500,110.1
2019-08-06 15:50:03.828125,100.85
2019-08-06 15:50:03.843750,88.42
2019-08-06 15:50:03.859375,74.13
2019-08-06 15:50:03.875000,59.35
2019-08-06 15:50:03.890625,45.05
2019-08-06 15:50:03.906250,31.53
2019-08-06 15:50:03.921875,18.36
2019-08-06 15:50:03.937500,5.03
2019-08-06 15:50:03.953125,-8.42
2019-08-06 15:50:03.968750,-21.04
2019-08-06 15:50:03.984375,-31.2
2019-08-06 15:50:04.000000,-36.8
2019-08-06 15:50:04.015625,-36.29
2019-08-06 15:50:04.031250,-29.29
2019-08-06 15:50:04.046875,-16.97
2019-08-06 15:50:04.062500,-1.71
2019-08-06 15:50:04.078125,13.61
2019-08-06 15:50:04.093750,26.96
2019-08-06 15:50:04.109375,37.56
2019-08-06 15:50:04.125000,45.99
2019-08-06 15:50:04.140625,54.0
2019-08-06 15:50:04.156250,63.48
2019-08-06 15:50:04.171875,74.97
2019-08-06 15:50:04.187500,89.07
2019-08-06 15:50:04.203125,104.72
2019-08-06 15:50:04.218750,118.69
2019-08-06 15:50:04.234375,126.11
2019-08-06 15:50:04.250000,121.51
2019-08-06 15:50:04.265625,100.61
2019-08-06 15:50:04.281250,62.82
2019-08-06 15:50:04.296875,12.74
2019-08-06 15:50:04.312500,-39.98
2019-08-06 15:50:04.328125,-83.13
2019-08-06 15:50:04.343750,-106.33
2019-08-06 15:50:04.359375,-105.41
2019-08-06 15:50:04.375000,-83.04
2019-08-06 15:50:04.390625,-47.82
2019-08-06 15:50:04.406250,-10.85
2019-08-06 15:50:04.421875,18.7
2019-08-06 15:50:04.437500,36.36
2019-08-06 15:50:04.453125,42.57
2019-08-06 15:50:04.468750,40.32
2019-08-06 15:50:04.484375,33.96
2019-08-06 15:50:04.500000,26.39
2019-08-06 15:50:04.515625,19.01
2019-08-06 15:50:04.531250,12.75
2019-08-06 15:50:04.546875,8.79
2019-08-06 15:50:04.562500,8.37
2019-08-06 15:50:04.578125,11.11
2019-08-06 15:50:04.593750,14.2
2019-08-06 15:50:04.609375,13.1
2019-08-06 15:50:04.625000,3.8
2019-08-06 15:50:04.640625,-14.86
2019-08-06 15:50:04.656250,-40.24
2019-08-06 15:50:04.671875,-67.02
2019-08-06 15:50:04.687500,-89.54
2019-08-06 15:50:04.703125,-103.9
2019-08-06 15:50:04.718750,-108.81
2019-08-06 15:50:04.734375,-105.14
2019-08-06 15:50:04.750000,-94.73
2019-08-06 15:50:04.765625,-79.41
2019-08-06 15:50:04.781250,-61.41
2019-08-06 15:50:04.796875,-42.5
2019-08-06 15:50:04.812500,-25.05
2019-08-06 15:50:04.828125,-11.68
2019-08-06 15:50:04.843750,-4.26
2019-08-06 15:50:04.859375,-3.04
2019-08-06 15:50:04.875000,-6.34
2019-08-06 15:50:04.890625,-11.0
2019-08-06 15:50:04.906250,-13.29
2019-08-06 15:50:04.921875,-10.34
2019-08-06 15:50:04.937500,-0.65
2019-08-06 15:50:04.953125,15.07
2019-08-06 15:50:04.968750,34.14
2019-08-06 15:50:04.984375,52.82
2019-08-06 15:50:05.000000,67.61
2019-08-06 15:50:05.015625,76.27
2019-08-06 15:50:05.031250,78.02
2019-08-06 15:50:05.046875,73.64
2019-08-06 15:50:05.062500,64.52
2019-08-06 15:50:05.078125,53.15
2019-08-06 15:50:05.093750,42.97
2019-08-06 15:50:05.109375,38.09
2019-08-06 15:50:05.125000,42.31
2019-08-06 15:50:05.140625,57.27
2019-08-06 15:50:05.156250,80.69
2019-08-06 15:50:05.171875,105.89
2019-08-06 15:50:05.187500,123.44
2019-08-06 15:50:05.203125,124.07
2019-08-06 15:50:05.218750,103.44
2019-08-06 15:50:05.234375,63.96
2019-08-06 15:50:05.250000,13.89
2019-08-06 15:50:05.265625,-36.04
2019-08-06 15:50:05.281250,-76.89
2019-08-06 15:50:05.296875,-104.42
2019-08-06 15:50:05.312500,-119.51
2019-08-06 15:50:05.328125,-126.05
2019-08-06 15:50:05.343750,-128.17
2019-08-06 15:50:05.359375,-128.48
2019-08-06 15:50:05.375000,-127.02
2019-08-06 15:50:05.390625,-123.14
2019-08-06 15:50:05.406250,-116.71
2019-08-06 15:50:05.421875,-109.17
2019-08-06 15:50:05.437500,-101.95
2019-08-06 15:50:05.453125,-95.83
2019-08-06 15:50:05.468750,-90.23
2019-08-06 15:50:05.484375,-83.4
2019-08-06 15:50:05.500000,-73.25
2019-08-06 15:50:05.515625,-58.34
2019-08-06 15:50:05.531250,-39.03
2019-08-06 15:50:05.546875,-17.25
2019-08-06 15:50:05.562500,4.63
2019-08-06 15:50:05.578125,23.73
2019-08-06 15:50:05.593750,38.31
2019-08-06 15:50:05.609375,48.17
2019-08-06 15:50:05.625000,54.34
2019-08-06 15:50:05.640625,58.38
2019-08-06 15:50:05.656250,61.63
2019-08-06 15:50:05.671875,64.45
2019-08-06 15:50:05.687500,66.41
2019-08-06 15:50:05.703125,66.56
2019-08-06 15:50:05.718750,64.12
2019-08-06 15:50:05.734375,58.9
2019-08-06 15:50:05.750000,51.47
2019-08-06 15:50:05.765625,42.92
2019-08-06 15:50:05.781250,34.45
2019-08-06 15:50:05.796875,27.0
2019-08-06 15:50:05.812500,20.9
2019-08-06 15:50:05.828125,15.94
2019-08-06 15:50:05.843750,11.68
2019-08-06 15:50:05.859375,7.64
2019-08-06 15:50:05.875000,3.71
2019-08-06 15:50:05.890625,0.1
2019-08-06 15:50:05.906250,-2.81
2019-08-06 15:50:05.921875,-4.59
2019-08-06 15:50:05.937500,-5.0
2019-08-06 15:50:05.953125,-4.08
2019-08-06 15:50:05.968750,-2.17
2019-08-06 15:50:05.984375,0.29
2019-08-06 15:50:06.000000,2.77
2019-08-06 15:50:06.015625,4.88
2019-08-06 15:50:06.031250,6.38
2019-08-06 15:50:06.046875,7.06
2019-08-06 15:50:06.062500,6.87
2019-08-06 15:50:06.078125,5.85
2019-08-06 15:50:06.093750,4.04
2019-08-06 15:50:06.109375,1.52
2019-08-06 15:50:06.125000,-1.6
2019-08-06 15:50:06.140625,-5.22
2019-08-06 15:50:06.156250,-9.2
2019-08-06 15:50:06.171875,-13.38
2019-08-06 15:50:06.187500,-17.79
2019-08-06 15:50:06.203125,-22.35
2019-08-06 15:50:06.218750,-27.0
2019-08-06 15:50:06.234375,-31.71
2019-08-06 15:50:06.250000,-36.48
2019-08-06 15:50:06.265625,-41.36
2019-08-06 15:50:06.281250,-46.44
2019-08-06 15:50:06.296875,-51.8
2019-08-06 15:50:06.312500,-57.5
2019-08-06 15:50:06.328125,-63.72
2019-08-06 15:50:06.343750,-70.38
2019-08-06 15:50:06.359375,-77.31
2019-08-06 15:50:06.375000,-84.24
2019-08-06 15:50:06.390625,-90.91
2019-08-06 15:50:06.406250,-97.01
2019-08-06 15:50:06.421875,-102.22
2019-08-06 15:50:06.437500,-106.2
2019-08-06 15:50:06.453125,-108.62
2019-08-06 15:50:06.468750,-109.37
2019-08-06 15:50:06.484375,-108.12
2019-08-06 15:50:06.500000,-104.5
2019-08-06 15:50:06.515625,-98.22
2019-08-06 15:50:06.531250,-89.12
2019-08-06 15:50:06.546875,-77.27
2019-08-06 15:50:06.562500,-62.92
2019-08-06 15:50:06.578125,-46.53
2019-08-06 15:50:06.593750,-27.26
2019-08-06 15:50:06.609375,-6.33
2019-08-06 15:50:06.625000,14.72
2019-08-06 15:50:06.640625,34.5
2019-08-06 15:50:06.656250,51.97
2019-08-06 15:50:06.671875,66.47
2019-08-06 15:50:06.687500,77.7
2019-08-06 15:50:06.703125,85.63
2019-08-06 15:50:06.718750,90.43
2019-08-06 15:50:06.734375,92.43
2019-08-06 15:50:06.750000,91.8
2019-08-06 15:50:06.765625,89.11
2019-08-06 15:50:06.781250,85.01
2019-08-06 15:50:06.796875,80.15
2019-08-06 15:50:06.812500,75.04
2019-08-06 15:50:06.828125,70.01
2019-08-06 15:50:06.843750,65.19
2019-08-06 15:50:06.859375,60.6
2019-08-06 15:50:06.875000,56.11
2019-08-06 15:50:06.890625,51.49
2019-08-06 15:50:06.906250,46.73
2019-08-06 15:50:06.921875,41.99
2019-08-06 15:50:06.937500,37.54
2019-08-06 15:50:06.953125,33.58
2019-08-06 15:50:06.968750,30.24
2019-08-06 15:50:06.984375,27.39
2019-08-06 15:50:07.000000,24.75
2019-08-06 15:50:07.015625,21.99
2019-08-06 15:50:07.031250,18.76
2019-08-06 15:50:07.046875,15.05
2019-08-06 15:50:07.062500,11.18
2019-08-06 15:50:07.078125,7.63
2019-08-06 15:50:07.093750,4.86
2019-08-06 15:50:07.109375,3.03
2019-08-06 15:50:07.125000,1.93
2019-08-06 15:50:07.140625,0.96
2019-08-06 15:50:07.156250,-0.56
2019-08-06 15:50:07.171875,-3.15
2019-08-06 15:50:07.187500,-6.8
2019-08-06 15:50:07.203125,-10.95
2019-08-06 15:50:07.218750,-14.7
2019-08-06 15:50:07.234375,-17.21
2019-08-06 15:50:07.250000,-18.16
2019-08-06 15:50:07.265625,-17.94
2019-08-06 15:50:07.281250,-17.55
2019-08-06 15:50:07.296875,-18.12
2019-08-06 15:50:07.312500,-20.47
2019-08-06 15:50:07.328125,-24.57
2019-08-06 15:50:07.343750,-29.53
2019-08-06 15:50:07.359375,-33.99
2019-08-06 15:50:07.375000,-36.84
2019-08-06 15:50:07.390625,-37.58
2019-08-06 15:50:07.406250,-36.67
2019-08-06 15:50:07.421875,-35.23
2019-08-06 15:50:07.437500,-34.47
2019-08-06 15:50:07.453125,-35.26
2019-08-06 15:50:07.468750,-38.31
2019-08-06 15:50:07.484375,-43.95
2019-08-06 15:50:07.500000,-51.99
2019-08-06 15:50:07.515625,-61.01
2019-08-06 15:50:07.531250,-67.99
2019-08-06 15:50:07.546875,-68.73
2019-08-06 15:50:07.562500,-59.32
2019-08-06 15:50:07.578125,-38.21
2019-08-06 15:50:07.593750,-7.73
2019-08-06 15:50:07.609375,26.36
2019-08-06 15:50:07.625000,56.92
2019-08-06 15:50:07.640625,78.35
2019-08-06 15:50:07.656250,88.79
2019-08-06 15:50:07.671875,90.22
2019-08-06 15:50:07.687500,86.72
2019-08-06 15:50:07.703125,82.1
2019-08-06 15:50:07.718750,78.22
2019-08-06 15:50:07.734375,74.9
2019-08-06 15:50:07.750000,71.18
2019-08-06 15:50:07.765625,66.69
2019-08-06 15:50:07.781250,62.09
2019-08-06 15:50:07.796875,58.7
2019-08-06 15:50:07.812500,57.31
2019-08-06 15:50:07.828125,57.57
2019-08-06 15:50:07.843750,58.09
2019-08-06 15:50:07.859375,57.09
2019-08-06 15:50:07.875000,53.13
2019-08-06 15:50:07.890625,45.89
2019-08-06 15:50:07.906250,36.42
2019-08-06 15:50:07.921875,25.71
2019-08-06 15:50:07.937500,14.91
2019-08-06 15:50:07.953125,4.62
2019-08-06 15:50:07.968750,-5.26
2019-08-06 15:50:07.984375,-15.26
2019-08-06 15:50:08.000000,-25.96
2019-08-06 15:50:08.015625,-37.52
2019-08-06 15:50:08.031250,-49.3
2019-08-06 15:50:08.046875,-60.35
2019-08-06 15:50:08.062500,-68.94
2019-08-06 15:50:08.078125,-73.82
2019-08-06 15:50:08.093750,-74.43
2019-08-06 15:50:08.109375,-70.84
2019-08-06 15:50:08.125000,-63.83
2019-08-06 15:50:08.140625,-54.5
2019-08-06 15:50:08.156250,-43.83
2019-08-06 15:50:08.171875,-32.51
2019-08-06 15:50:08.187500,-20.93
2019-08-06 15:50:08.203125,-9.38
2019-08-06 15:50:08.218750,1.93
2019-08-06 15:50:08.234375,12.7
2019-08-06 15:50:08.250000,21.82
2019-08-06 15:50:08.265625,29.3
2019-08-06 15:50:08.281250,34.99
2019-08-06 15:50:08.296875,38.83
2019-08-06 15:50:08.312500,41.03
2019-08-06 15:50:08.328125,41.97
2019-08-06 15:50:08.343750,42.07
2019-08-06 15:50:08.359375,41.73
2019-08-06 15:50:08.375000,41.27
2019-08-06 15:50:08.390625,40.85
2019-08-06 15:50:08.406250,40.59
2019-08-06 15:50:08.421875,40.45
2019-08-06 15:50:08.437500,40.33
2019-08-06 15:50:08.453125,40.2
2019-08-06 15:50:08.468750,40.25
2019-08-06 15:50:08.484375,40.15
2019-08-06 15:50:08.500000,39.71
2019-08-06 15:50:08.515625,38.77
2019-08-06 15:50:08.531250,37.13
2019-08-06 15:50:08.546875,34.74
2019-08-06 15:50:08.562500,31.7
2019-08-06 15:50:08.578125,27.7
2019-08-06 15:50:08.593750,22.68
2019-08-06 15:50:08.609375,16.72
2019-08-06 15:50:08.625000,9.98
2019-08-06 15:50:08.640625,2.75
2019-08-06 15:50:08.656250,-4.65
2019-08-06 15:50:08.671875,-11.85
2019-08-06 15:50:08.687500,-18.47
2019-08-06 15:50:08.703125,-24.45
2019-08-06 15:50:08.718750,-29.3
2019-08-06 15:50:08.734375,-32.76
2019-08-06 15:50:08.750000,-34.74
2019-08-06 15:50:08.765625,-35.34
2019-08-06 15:50:08.781250,-34.64
2019-08-06 15:50:08.796875,-32.82
2019-08-06 15:50:08.812500,-30.12
2019-08-06 15:50:08.828125,-26.76
2019-08-06 15:50:08.843750,-22.97
2019-08-06 15:50:08.859375,-19.07
2019-08-06 15:50:08.875000,-15.41
2019-08-06 15:50:08.890625,-12.22
2019-08-06 15:50:08.906250,-9.72
2019-08-06 15:50:08.921875,-7.97
2019-08-06 15:50:08.937500,-6.95
2019-08-06 15:50:08.953125,-6.81
2019-08-06 15:50:08.968750,-7.17
2019-08-06 15:50:08.984375,-7.86
2019-08-06 15:50:09.000000,-8.7
2019-08-06 15:50:09.015625,-9.6
2019-08-06 15:50:09.031250,-10.48
2019-08-06 15:50:09.046875,-11.24
2019-08-06 15:50:09.062500,-11.91
2019-08-06 15:50:09.078125,-12.42
2019-08-06 15:50:09.093750,-12.69
2019-08-06 15:50:09.109375,-12.63
2019-08-06 15:50:09.125000,-12.22
2019-08-06 15:50:09.140625,-11.48
2019-08-06 15:50:09.156250,-10.53
2019-08-06 15:50:09.171875,-9.49
2019-08-06 15:50:09.187500,-8.57
2019-08-06 15:50:09.203125,-7.86
2019-08-06 15:50:09.218750,-7.33
2019-08-06 15:50:09.234375,-6.85
2019-08-06 15:50:09.250000,-6.16
2019-08-06 15:50:09.265625,-5.11
2019-08-06 15:50:09.281250,-3.65
2019-08-06 15:50:09.296875,-1.95
2019-08-06 15:50:09.312500,-0.31
2019-08-06 15:50:09.328125,0.96
2019-08-06 15:50:09.343750,1.64
2019-08-06 15:50:09.359375,1.81
2019-08-06 15:50:09.375000,1.8
2019-08-06 15:50:09.390625,2.06
2019-08-06 15:50:09.406250,2.94
2019-08-06 15:50:09.421875,4.5
2019-08-06 15:50:09.437500,6.46
2019-08-06 15:50:09.453125,8.25
2019-08-06 15:50:09.468750,9.3
2019-08-06 15:50:09.484375,9.29
2019-08-06 15:50:09.500000,8.4
2019-08-06 15:50:09.515625,7.28
2019-08-06 15:50:09.531250,6.81
2019-08-06 15:50:09.546875,7.65
2019-08-06 15:50:09.562500,9.95
2019-08-06 15:50:09.578125,13.23
2019-08-06 15:50:09.593750,16.48
2019-08-06 15:50:09.609375,18.74
2019-08-06 15:50:09.625000,19.4
2019-08-06 15:50:09.640625,18.6
2019-08-06 15:50:09.656250,17.12
2019-08-06 15:50:09.671875,16.08
2019-08-06 15:50:09.687500,16.39
2019-08-06 15:50:09.703125,18.66
2019-08-06 15:50:09.718750,22.99
2019-08-06 15:50:09.734375,28.86
2019-08-06 15:50:09.750000,35.02
2019-08-06 15:50:09.765625,39.49
2019-08-06 15:50:09.781250,39.96
2019-08-06 15:50:09.796875,34.54
2019-08-06 15:50:09.812500,22.61
2019-08-06 15:50:09.828125,5.44
2019-08-06 15:50:09.843750,-13.92
2019-08-06 15:50:09.859375,-31.57
2019-08-06 15:50:09.875000,-44.22
2019-08-06 15:50:09.890625,-50.24
2019-08-06 15:50:09.906250,-50.02
2019-08-06 15:50:09.921875,-45.57
2019-08-06 15:50:09.937500,-39.08
2019-08-06 15:50:09.953125,-32.28
2019-08-06 15:50:09.968750,-25.92
2019-08-06 15:50:09.984375,-19.92
2019-08-06 15:50:10.000000,-13.81
2019-08-06 15:50:10.015625,-7.22
2019-08-06 15:50:10.031250,-0.25
2019-08-06 15:50:10.046875,6.38
2019-08-06 15:50:10.062500,11.39
2019-08-06 15:50:10.078125,13.19
2019-08-06 15:50:10.093750,10.41
2019-08-06 15:50:10.109375,2.7
2019-08-06 15:50:10.125000,-9.05
2019-08-06 15:50:10.140625,-22.65
2019-08-06 15:50:10.156250,-35.53
2019-08-06 15:50:10.171875,-45.49
2019-08-06 15:50:10.187500,-51.36
2019-08-06 15:50:10.203125,-53.19
2019-08-06 15:50:10.218750,-51.75
2019-08-06 15:50:10.234375,-48.22
2019-08-06 15:50:10.250000,-43.67
2019-08-06 15:50:10.265625,-39.0
2019-08-06 15:50:10.281250,-35.23
2019-08-06 15:50:10.296875,-33.74
2019-08-06 15:50:10.312500,-35.93
2019-08-06 15:50:10.328125,-42.59
2019-08-06 15:50:10.343750,-52.45
2019-08-06 15:50:10.359375,-61.83
2019-08-06 15:50:10.375000,-65.41
2019-08-06 15:50:10.390625,-58.27
2019-08-06 15:50:10.406250,-38.48
2019-08-06 15:50:10.421875,-8.52
2019-08-06 15:50:10.437500,25.11
2019-08-06 15:50:10.453125,54.43
2019-08-06 15:50:10.468750,73.35
2019-08-06 15:50:10.484375,80.06
2019-08-06 15:50:10.500000,77.09
2019-08-06 15:50:10.515625,69.28
2019-08-06 15:50:10.531250,60.62
2019-08-06 15:50:10.546875,53.6
2019-08-06 15:50:10.562500,47.96
2019-08-06 15:50:10.578125,42.29
2019-08-06 15:50:10.593750,35.96
2019-08-06 15:50:10.609375,29.9
2019-08-06 15:50:10.625000,26.06
2019-08-06 15:50:10.640625,25.95
2019-08-06 15:50:10.656250,29.59
2019-08-06 15:50:10.671875,35.11
2019-08-06 15:50:10.687500,39.85
2019-08-06 15:50:10.703125,41.36
2019-08-06 15:50:10.718750,38.83
2019-08-06 15:50:10.734375,33.39
2019-08-06 15:50:10.750000,27.75
2019-08-06 15:50:10.765625,25.0
2019-08-06 15:50:10.781250,27.28
2019-08-06 15:50:10.796875,34.74
2019-08-06 15:50:10.812500,45.01
2019-08-06 15:50:10.828125,53.96
2019-08-06 15:50:10.843750,57.16
2019-08-06 15:50:10.859375,51.83
2019-08-06 15:50:10.875000,38.09
2019-08-06 15:50:10.890625,18.76
2019-08-06 15:50:10.906250,-2.01
2019-08-06 15:50:10.921875,-20.59
2019-08-06 15:50:10.937500,-35.2
2019-08-06 15:50:10.953125,-45.81
2019-08-06 15:50:10.968750,-53.18
2019-08-06 15:50:10.984375,-57.77
2019-08-06 15:50:11.000000,-59.3
2019-08-06 15:50:11.015625,-57.51
2019-08-06 15:50:11.031250,-53.25
2019-08-06 15:50:11.046875,-48.5
2019-08-06 15:50:11.062500,-45.38
2019-08-06 15:50:11.078125,-44.72
2019-08-06 15:50:11.093750,-45.21
2019-08-06 15:50:11.109375,-44.62
2019-08-06 15:50:11.125000,-41.87
2019-08-06 15:50:11.140625,-38.63
2019-08-06 15:50:11.156250,-38.61
2019-08-06 15:50:11.171875,-44.43
2019-08-06 15:50:11.187500,-54.8
2019-08-06 15:50:11.203125,-63.57
2019-08-06 15:50:11.218750,-62.21
2019-08-06 15:50:11.234375,-44.45
2019-08-06 15:50:11.250000,-10.25
2019-08-06 15:50:11.265625,33.16
2019-08-06 15:50:11.281250,74.38
2019-08-06 15:50:11.296875,102.9
2019-08-06 15:50:11.312500,113.54
2019-08-06 15:50:11.328125,107.72
2019-08-06 15:50:11.343750,91.47
2019-08-06 15:50:11.359375,71.8
2019-08-06 15:50:11.375000,53.93
2019-08-06 15:50:11.390625,40.11
2019-08-06 15:50:11.406250,30.39
2019-08-06 15:50:11.421875,23.95
2019-08-06 15:50:11.437500,19.84
2019-08-06 15:50:11.453125,17.45
2019-08-06 15:50:11.468750,15.99
2019-08-06 15:50:11.484375,14.34
2019-08-06 15:50:11.500000,11.35
2019-08-06 15:50:11.515625,6.35
2019-08-06 15:50:11.531250,-1.04
2019-08-06 15:50:11.546875,-11.07
2019-08-06 15:50:11.562500,-23.88
2019-08-06 15:50:11.578125,-38.88
2019-08-06 15:50:11.593750,-53.99
2019-08-06 15:50:11.609375,-64.74
2019-08-06 15:50:11.625000,-65.55
2019-08-06 15:50:11.640625,-52.27
2019-08-06 15:50:11.656250,-24.57
2019-08-06 15:50:11.671875,13.34
2019-08-06 15:50:11.687500,54.13
2019-08-06 15:50:11.703125,90.57
2019-08-06 15:50:11.718750,117.65
2019-08-06 15:50:11.734375,134.41
2019-08-06 15:50:11.750000,142.0
2019-08-06 15:50:11.765625,140.91
2019-08-06 15:50:11.781250,129.55
2019-08-06 15:50:11.796875,105.49
2019-08-06 15:50:11.812500,68.32
2019-08-06 15:50:11.828125,21.77
2019-08-06 15:50:11.843750,-26.43
2019-08-06 15:50:11.859375,-67.52
2019-08-06 15:50:11.875000,-95.23
2019-08-06 15:50:11.890625,-108.41
2019-08-06 15:50:11.906250,-110.49
2019-08-06 15:50:11.921875,-107.18
2019-08-06 15:50:11.937500,-103.32
2019-08-06 15:50:11.953125,-101.07
2019-08-06 15:50:11.968750,-100.16
2019-08-06 15:50:11.984375,-99.25
2019-08-06 15:50:12.000000,-97.45
2019-08-06 15:50:12.015625,-94.57
2019-08-06 15:50:12.031250,-91.89
2019-08-06 15:50:12.046875,-89.31
2019-08-06 15:50:12.062500,-86.47
2019-08-06 15:50:12.078125,-82.75
2019-08-06 15:50:12.093750,-77.35
2019-08-06 15:50:12.109375,-69.89
2019-08-06 15:50:12.125000,-60.63
2019-08-06 15:50:12.140625,-50.41
2019-08-06 15:50:12.156250,-40.17
2019-08-06 15:50:12.171875,-30.66
2019-08-06 15:50:12.187500,-22.12
2019-08-06 15:50:12.203125,-14.43
2019-08-06 15:50:12.218750,-7.12
2019-08-06 15:50:12.234375,0.34
2019-08-06 15:50:12.250000,8.22
2019-08-06 15:50:12.265625,16.78
2019-08-06 15:50:12.281250,25.22
2019-08-06 15:50:12.296875,32.74
2019-08-06 15:50:12.312500,38.86
2019-08-06 15:50:12.328125,43.58
2019-08-06 15:50:12.343750,47.08
2019-08-06 15:50:12.359375,49.72
2019-08-06 15:50:12.375000,51.91
2019-08-06 15:50:12.390625,53.84
2019-08-06 15:50:12.406250,55.45
2019-08-06 15:50:12.421875,56.41
2019-08-06 15:50:12.437500,56.47
2019-08-06 15:50:12.453125,55.58
2019-08-06 15:50:12.468750,54.09
2019-08-06 15:50:12.484375,52.37
2019-08-06 15:50:12.500000,50.9
2019-08-06 15:50:12.515625,50.17
2019-08-06 15:50:12.531250,50.43
2019-08-06 15:50:12.546875,51.75
2019-08-06 15:50:12.562500,53.88
2019-08-06 15:50:12.578125,56.48
2019-08-06 15:50:12.593750,59.21
2019-08-06 15:50:12.609375,61.8
2019-08-06 15:50:12.625000,63.79
2019-08-06 15:50:12.640625,64.76
2019-08-06 15:50:12.656250,64.3
2019-08-06 15:50:12.671875,62.05
2019-08-06 15:50:12.687500,57.74
2019-08-06 15:50:12.703125,51.1
2019-08-06 15:50:12.718750,42.2
2019-08-06 15:50:12.734375,31.33
2019-08-06 15:50:12.750000,19.1
2019-08-06 15:50:12.765625,6.03
2019-08-06 15:50:12.781250,-7.28
2019-08-06 15:50:12.796875,-20.16
2019-08-06 15:50:12.812500,-31.97
2019-08-06 15:50:12.828125,-42.05
2019-08-06 15:50:12.843750,-49.26
2019-08-06 15:50:12.859375,-53.44
2019-08-06 15:50:12.875000,-55.38
2019-08-06 15:50:12.890625,-54.75
2019-08-06 15:50:12.906250,-51.7
2019-08-06 15:50:12.921875,-46.71
2019-08-06 15:50:12.937500,-40.5
2019-08-06 15:50:12.953125,-33.91
2019-08-06 15:50:12.968750,-27.9
2019-08-06 15:50:12.984375,-23.53
2019-08-06 15:50:13.000000,-21.42
2019-08-06 15:50:13.015625,-22.06
2019-08-06 15:50:13.031250,-25.52
2019-08-06 15:50:13.046875,-31.78
2019-08-06 15:50:13.062500,-40.62
2019-08-06 15:50:13.078125,-51.59
2019-08-06 15:50:13.093750,-64.1
2019-08-06 15:50:13.109375,-76.37
2019-08-06 15:50:13.125000,-88.21
2019-08-06 15:50:13.140625,-99.23
2019-08-06 15:50:13.156250,-109.13
2019-08-06 15:50:13.171875,-117.46
2019-08-06 15:50:13.187500,-123.94
2019-08-06 15:50:13.203125,-128.26
2019-08-06 15:50:13.218750,-130.08
2019-08-06 15:50:13.234375,-129.12
2019-08-06 15:50:13.250000,-125.11
2019-08-06 15:50:13.265625,-119.3
2019-08-06 15:50:13.281250,-110.97
2019-08-06 15:50:13.296875,-99.84
2019-08-06 15:50:13.312500,-86.05
2019-08-06 15:50:13.328125,-70.16
2019-08-06 15:50:13.343750,-52.89
2019-08-06 15:50:13.359375,-35.1
2019-08-06 15:50:13.375000,-17.65
2019-08-06 15:50:13.390625,-1.27
2019-08-06 15:50:13.406250,13.33
2019-08-06 15:50:13.421875,26.01
2019-08-06 15:50:13.437500,36.68
2019-08-06 15:50:13.453125,45.65
2019-08-06 15:50:13.468750,52.91
2019-08-06 15:50:13.484375,58.69
2019-08-06 15:50:13.500000,63.3
2019-08-06 15:50:13.515625,67.03
2019-08-06 15:50:13.531250,70.05
2019-08-06 15:50:13.546875,72.4
2019-08-06 15:50:13.562500,74.21
2019-08-06 15:50:13.578125,75.36
2019-08-06 15:50:13.593750,75.76
2019-08-06 15:50:13.609375,75.27
2019-08-06 15:50:13.625000,73.91
2019-08-06 15:50:13.640625,71.72
2019-08-06 15:50:13.656250,68.84
2019-08-06 15:50:13.671875,65.41
2019-08-06 15:50:13.687500,61.57
2019-08-06 15:50:13.703125,57.58
2019-08-06 15:50:13.718750,53.55
2019-08-06 15:50:13.734375,49.57
2019-08-06 15:50:13.750000,45.64
2019-08-06 15:50:13.765625,41.83
2019-08-06 15:50:13.781250,38.18
2019-08-06 15:50:13.796875,34.71
2019-08-06 15:50:13.812500,31.51
2019-08-06 15:50:13.828125,28.64
2019-08-06 15:50:13.843750,26.08
2019-08-06 15:50:13.859375,23.73
2019-08-06 15:50:13.875000,21.52
2019-08-06 15:50:13.890625,19.35
2019-08-06 15:50:13.906250,17.25
2019-08-06 15:50:13.921875,15.23
2019-08-06 15:50:13.937500,13.35
2019-08-06 15:50:13.953125,11.7
2019-08-06 15:50:13.968750,10.31
2019-08-06 15:50:13.984375,9.15
2019-08-06 15:50:14.000000,8.16
2019-08-06 15:50:14.015625,7.21
2019-08-06 15:50:14.031250,6.2
2019-08-06 15:50:14.046875,5.12
2019-08-06 15:50:14.062500,4.03
2019-08-06 15:50:14.078125,3.11
2019-08-06 15:50:14.093750,2.5
2019-08-06 15:50:14.109375,2.28
2019-08-06 15:50:14.125000,2.39
2019-08-06 15:50:14.140625,2.65
2019-08-06 15:50:14.156250,2.79
2019-08-06 15:50:14.171875,2.58
2019-08-06 15:50:14.187500,2.02
2019-08-06 15:50:14.203125,1.25
2019-08-06 15:50:14.218750,0.65
2019-08-06 15:50:14.234375,0.59
2019-08-06 15:50:14.250000,1.25
2019-08-06 15:50:14.265625,2.51
2019-08-06 15:50:14.281250,3.96
2019-08-06 15:50:14.296875,5.0
2019-08-06 15:50:14.312500,5.16
2019-08-06 15:50:14.328125,4.37
2019-08-06 15:50:14.343750,3.04
2019-08-06 15:50:14.359375,1.91
2019-08-06 15:50:14.375000,1.8
2019-08-06 15:50:14.390625,3.1
2019-08-06 15:50:14.406250,5.59
2019-08-06 15:50:14.421875,8.41
2019-08-06 15:50:14.437500,10.43
2019-08-06 15:50:14.453125,10.77
2019-08-06 15:50:14.468750,9.3
2019-08-06 15:50:14.484375,6.78
2019-08-06 15:50:14.500000,4.58
2019-08-06 15:50:14.515625,4.02
2019-08-06 15:50:14.531250,5.63
2019-08-06 15:50:14.546875,8.87
2019-08-06 15:50:14.562500,12.19
2019-08-06 15:50:14.578125,13.75
2019-08-06 15:50:14.593750,12.17
2019-08-06 15:50:14.609375,7.11
2019-08-06 15:50:14.625000,-0.72
2019-08-06 15:50:14.640625,-9.94
2019-08-06 15:50:14.656250,-18.9
2019-08-06 15:50:14.671875,-26.12
2019-08-06 15:50:14.687500,-30.3
2019-08-06 15:50:14.703125,-30.58
2019-08-06 15:50:14.718750,-26.6
2019-08-06 15:50:14.734375,-19.07
2019-08-06 15:50:14.750000,-9.92
2019-08-06 15:50:14.765625,-1.99
2019-08-06 15:50:14.781250,1.98
2019-08-06 15:50:14.796875,0.71
2019-08-06 15:50:14.812500,-4.88
2019-08-06 15:50:14.828125,-11.79
2019-08-06 15:50:14.843750,-16.33
2019-08-06 15:50:14.859375,-16.0
2019-08-06 15:50:14.875000,-10.76
2019-08-06 15:50:14.890625,-3.21
2019-08-06 15:50:14.906250,2.73
2019-08-06 15:50:14.921875,3.99
2019-08-06 15:50:14.937500,-0.04
2019-08-06 15:50:14.953125,-7.09
2019-08-06 15:50:14.968750,-13.19
2019-08-06 15:50:14.984375,-14.8
2019-08-06 15:50:15.000000,-10.66
2019-08-06 15:50:15.015625,-2.53
2019-08-06 15:50:15.031250,5.8
2019-08-06 15:50:15.046875,10.52
2019-08-06 15:50:15.062500,9.74
2019-08-06 15:50:15.078125,4.58
2019-08-06 15:50:15.093750,-1.68
2019-08-06 15:50:15.109375,-5.47
2019-08-06 15:50:15.125000,-5.04
2019-08-06 15:50:15.140625,-1.41
2019-08-06 15:50:15.156250,2.51
2019-08-06 15:50:15.171875,3.66
2019-08-06 15:50:15.187500,0.81
2019-08-06 15:50:15.203125,-4.62
2019-08-06 15:50:15.218750,-9.41
2019-08-06 15:50:15.234375,-10.51
2019-08-06 15:50:15.250000,-6.97
2019-08-06 15:50:15.265625,-0.7
2019-08-06 15:50:15.281250,4.5
2019-08-06 15:50:15.296875,5.18
2019-08-06 15:50:15.312500,0.27
2019-08-06 15:50:15.328125,-8.16
2019-08-06 15:50:15.343750,-15.87
2019-08-06 15:50:15.359375,-18.9
2019-08-06 15:50:15.375000,-15.74
2019-08-06 15:50:15.390625,-8.22
2019-08-06 15:50:15.406250,-0.38
2019-08-06 15:50:15.421875,3.88
2019-08-06 15:50:15.437500,2.93
2019-08-06 15:50:15.453125,-1.8
2019-08-06 15:50:15.468750,-6.78
2019-08-06 15:50:15.484375,-8.55
2019-08-06 15:50:15.500000,-5.6
2019-08-06 15:50:15.515625,0.79
2019-08-06 15:50:15.531250,7.45
2019-08-06 15:50:15.546875,11.02
2019-08-06 15:50:15.562500,10.03
2019-08-06 15:50:15.578125,5.65
2019-08-06 15:50:15.593750,0.82
2019-08-06 15:50:15.609375,-1.32
2019-08-06 15:50:15.625000,0.84
2019-08-06 15:50:15.640625,6.41
2019-08-06 15:50:15.656250,12.71
2019-08-06 15:50:15.671875,16.65
2019-08-06 15:50:15.687500,16.06
2019-08-06 15:50:15.703125,11.0
2019-08-06 15:50:15.718750,4.02
2019-08-06 15:50:15.734375,-1.19
2019-08-06 15:50:15.750000,-1.8
2019-08-06 15:50:15.765625,2.35
2019-08-06 15:50:15.781250,8.35
2019-08-06 15:50:15.796875,11.87
2019-08-06 15:50:15.812500,9.63
2019-08-06 15:50:15.828125,1.68
2019-08-06 15:50:15.843750,-7.88
2019-08-06 15:50:15.859375,-12.92
2019-08-06 15:50:15.875000,-8.69
2019-08-06 15:50:15.890625,5.15
2019-08-06 15:50:15.906250,23.99
2019-08-06 15:50:15.921875,40.13
2019-08-06 15:50:15.937500,46.82
2019-08-06 15:50:15.953125,41.41
2019-08-06 15:50:15.968750,26.71
2019-08-06 15:50:15.984375,9.86
2019-08-06 15:50:16.000000,-1.76
2019-08-06 15:50:16.015625,-5.02
2019-08-06 15:50:16.031250,-2.86
2019-08-06 15:50:16.046875,-2.52
2019-08-06 15:50:16.062500,-11.71
2019-08-06 15:50:16.078125,-34.22
2019-08-06 15:50:16.093750,-68.61
2019-08-06 15:50:16.109375,-108.25
2019-08-06 15:50:16.125000,-142.8
2019-08-06 15:50:16.140625,-161.79
2019-08-06 15:50:16.156250,-157.7
2019-08-06 15:50:16.171875,-127.88
2019-08-06 15:50:16.187500,-74.67
2019-08-06 15:50:16.203125,-5.15
2019-08-06 15:50:16.218750,69.86
2019-08-06 15:50:16.234375,136.4
2019-08-06 15:50:16.250000,181.08
2019-08-06 15:50:16.265625,195.87
2019-08-06 15:50:16.281250,181.34
2019-08-06 15:50:16.296875,146.36
2019-08-06 15:50:16.312500,105.57
2019-08-06 15:50:16.328125,74.77
2019-08-06 15:50:16.343750,65.12
2019-08-06 15:50:16.359375,78.27
2019-08-06 15:50:16.375000,103.93
2019-08-06 15:50:16.390625,124.52
2019-08-06 15:50:16.406250,124.14
2019-08-06 15:50:16.421875,95.5
2019-08-06 15:50:16.437500,42.19
2019-08-06 15:50:16.453125,-23.38
2019-08-06 15:50:16.468750,-85.53
2019-08-06 15:50:16.484375,-131.83
2019-08-06 15:50:16.500000,-150.4
2019-08-06 15:50:16.515625,-138.3
2019-08-06 15:50:16.531250,-108.39
2019-08-06 15:50:16.546875,-79.17
2019-08-06 15:50:16.562500,-59.87
2019-08-06 15:50:16.578125,-47.8
2019-08-06 15:50:16.593750,-36.34
2019-08-06 15:50:16.609375,-22.33
2019-08-06 15:50:16.625000,-7.98
2019-08-06 15:50:16.640625,1.64
2019-08-06 15:50:16.656250,1.81
2019-08-06 15:50:16.671875,-8.12
2019-08-06 15:50:16.687500,-22.82
2019-08-06 15:50:16.703125,-34.13
2019-08-06 15:50:16.718750,-36.19
2019-08-06 15:50:16.734375,-28.31
2019-08-06 15:50:16.750000,-14.29
2019-08-06 15:50:16.765625,-0.12
2019-08-06 15:50:16.781250,9.14
2019-08-06 15:50:16.796875,10.4
2019-08-06 15:50:16.812500,3.86
2019-08-06 15:50:16.828125,-6.41
2019-08-06 15:50:16.843750,-14.73
2019-08-06 15:50:16.859375,-17.14
2019-08-06 15:50:16.875000,-13.13
2019-08-06 15:50:16.890625,-5.09
2019-08-06 15:50:16.906250,3.35
2019-08-06 15:50:16.921875,9.13
2019-08-06 15:50:16.937500,10.34
2019-08-06 15:50:16.953125,6.94
2019-08-06 15:50:16.968750,1.15
2019-08-06 15:50:16.984375,-3.82
2019-08-06 15:50:17.000000,-5.74
2019-08-06 15:50:17.015625,-4.25
2019-08-06 15:50:17.031250,-0.55
2019-08-06 15:50:17.046875,3.59
2019-08-06 15:50:17.062500,6.67
2019-08-06 15:50:17.078125,7.74
2019-08-06 15:50:17.093750,6.69
2019-08-06 15:50:17.109375,4.42
2019-08-06 15:50:17.125000,2.3
2019-08-06 15:50:17.140625,1.25
2019-08-06 15:50:17.156250,1.48
2019-08-06 15:50:17.171875,2.55
2019-08-06 15:50:17.187500,3.85
2019-08-06 15:50:17.203125,4.88
2019-08-06 15:50:17.218750,5.32
2019-08-06 15:50:17.234375,5.14
2019-08-06 15:50:17.250000,4.54
2019-08-06 15:50:17.265625,3.9
2019-08-06 15:50:17.281250,3.46
2019-08-06 15:50:17.296875,3.29
2019-08-06 15:50:17.312500,3.32
2019-08-06 15:50:17.328125,3.47
2019-08-06 15:50:17.343750,3.71
2019-08-06 15:50:17.359375,4.0
2019-08-06 15:50:17.375000,4.36
2019-08-06 15:50:17.390625,4.71
2019-08-06 15:50:17.406250,5.01
2019-08-06 15:50:17.421875,5.21
2019-08-06 15:50:17.437500,5.35
2019-08-06 15:50:17.453125,5.48
2019-08-06 15:50:17.468750,5.71
2019-08-06 15:50:17.484375,6.07
2019-08-06 15:50:17.500000,6.46
2019-08-06 15:50:17.515625,6.89
2019-08-06 15:50:17.531250,7.26
2019-08-06 15:50:17.546875,7.52
2019-08-06 15:50:17.562500,7.62
2019-08-06 15:50:17.578125,7.62
2019-08-06 15:50:17.593750,7.65
2019-08-06 15:50:17.609375,7.83
2019-08-06 15:50:17.625000,8.23
2019-08-06 15:50:17.640625,8.78
2019-08-06 15:50:17.656250,9.37
2019-08-06 15:50:17.671875,9.74
2019-08-06 15:50:17.687500,9.73
2019-08-06 15:50:17.703125,9.3
2019-08-06 15:50:17.718750,8.64
2019-08-06 15:50:17.734375,8.13
2019-08-06 15:50:17.750000,8.19
2019-08-06 15:50:17.765625,9.04
2019-08-06 15:50:17.781250,10.59
2019-08-06 15:50:17.796875,12.44
2019-08-06 15:50:17.812500,13.93
2019-08-06 15:50:17.828125,14.55
2019-08-06 15:50:17.843750,14.14
2019-08-06 15:50:17.859375,13.12
2019-08-06 15:50:17.875000,12.3
2019-08-06 15:50:17.890625,12.58
2019-08-06 15:50:17.906250,14.47
2019-08-06 15:50:17.921875,17.79
2019-08-06 15:50:17.937500,21.63
2019-08-06 15:50:17.953125,24.76
2019-08-06 15:50:17.968750,26.17
2019-08-06 15:50:17.984375,25.66
2019-08-06 15:50:18.000000,24.02
2019-08-06 15:50:18.015625,22.78
2019-08-06 15:50:18.031250,23.43
2019-08-06 15:50:18.046875,26.69
2019-08-06 15:50:18.062500,31.99
2019-08-06 15:50:18.078125,37.66
2019-08-06 15:50:18.093750,41.58
2019-08-06 15:50:18.109375,42.37
2019-08-06 15:50:18.125000,40.05
2019-08-06 15:50:18.140625,36.15
2019-08-06 15:50:18.156250,32.93
2019-08-06 15:50:18.171875,32.13
2019-08-06 15:50:18.187500,34.26
2019-08-06 15:50:18.203125,38.55
2019-08-06 15:50:18.218750,43.79
2019-08-06 15:50:18.234375,48.96
2019-08-06 15:50:18.250000,53.3
2019-08-06 15:50:18.265625,55.36
2019-08-06 15:50:18.281250,52.46
2019-08-06 15:50:18.296875,41.08
2019-08-06 15:50:18.312500,18.73
2019-08-06 15:50:18.328125,-14.05
2019-08-06 15:50:18.343750,-53.01
2019-08-06 15:50:18.359375,-91.66
2019-08-06 15:50:18.375000,-124.52
2019-08-06 15:50:18.390625,-149.71
2019-08-06 15:50:18.406250,-169.49
2019-08-06 15:50:18.421875,-188.05
2019-08-06 15:50:18.437500,-208.47
2019-08-06 15:50:18.453125,-230.78
2019-08-06 15:50:18.468750,-252.41
2019-08-06 15:50:18.484375,-270.87
2019-08-06 15:50:18.500000,-286.42
2019-08-06 15:50:18.515625,-302.92
2019-08-06 15:50:18.531250,-325.17
2019-08-06 15:50:18.546875,-354.79
2019-08-06 15:50:18.562500,-387.3
2019-08-06 15:50:18.578125,-412.18
2019-08-06 15:50:18.593750,-416.98
2019-08-06 15:50:18.609375,-392.45
2019-08-06 15:50:18.625000,-337.26
2019-08-06 15:50:18.640625,-257.22
2019-08-06 15:50:18.656250,-163.86
2019-08-06 15:50:18.671875,-70.9
2019-08-06 15:50:18.687500,10.07
2019-08-06 15:50:18.703125,72.31
2019-08-06 15:50:18.718750,115.25
2019-08-06 15:50:18.734375,143.84
2019-08-06 15:50:18.750000,165.96
2019-08-06 15:50:18.765625,189.4
2019-08-06 15:50:18.781250,218.95
2019-08-06 15:50:18.796875,254.55
2019-08-06 15:50:18.812500,292.16
2019-08-06 15:50:18.828125,326.25
2019-08-06 15:50:18.843750,352.71
2019-08-06 15:50:18.859375,370.35
2019-08-06 15:50:18.875000,380.29
2019-08-06 15:50:18.890625,384.34
2019-08-06 15:50:18.906250,383.18
2019-08-06 15:50:18.921875,376.02
2019-08-06 15:50:18.937500,360.89
2019-08-06 15:50:18.953125,335.67
2019-08-06 15:50:18.968750,298.71
2019-08-06 15:50:18.984375,249.58
2019-08-06 15:50:19.000000,189.92
2019-08-06 15:50:19.015625,124.19
2019-08-06 15:50:19.031250,59.86
2019-08-06 15:50:19.046875,5.55
2019-08-06 15:50:19.062500,-32.31
2019-08-06 15:50:19.078125,-52.69
2019-08-06 15:50:19.093750,-60.68
2019-08-06 15:50:19.109375,-65.01
2019-08-06 15:50:19.125000,-73.56
2019-08-06 15:50:19.140625,-89.66
2019-08-06 15:50:19.156250,-111.22
2019-08-06 15:50:19.171875,-133.0
2019-08-06 15:50:19.187500,-150.4
2019-08-06 15:50:19.203125,-162.34
2019-08-06 15:50:19.218750,-171.48
2019-08-06 15:50:19.234375,-181.62
2019-08-06 15:50:19.250000,-194.89
2019-08-06 15:50:19.265625,-210.32
2019-08-06 15:50:19.281250,-224.22
2019-08-06 15:50:19.296875,-232.04
2019-08-06 15:50:19.312500,-230.24
2019-08-06 15:50:19.328125,-217.61
2019-08-06 15:50:19.343750,-194.12
2019-08-06 15:50:19.359375,-159.97
2019-08-06 15:50:19.375000,-115.06
2019-08-06 15:50:19.390625,-59.54
2019-08-06 15:50:19.406250,4.78
2019-08-06 15:50:19.421875,72.74
2019-08-06 15:50:19.437500,136.12
2019-08-06 15:50:19.453125,185.37
2019-08-06 15:50:19.468750,213.83
2019-08-06 15:50:19.484375,220.69
2019-08-06 15:50:19.500000,211.13
2019-08-06 15:50:19.515625,193.94
2019-08-06 15:50:19.531250,177.73
2019-08-06 15:50:19.546875,167.67
2019-08-06 15:50:19.562500,164.5
2019-08-06 15:50:19.578125,165.81
2019-08-06 15:50:19.593750,168.34
2019-08-06 15:50:19.609375,169.87
2019-08-06 15:50:19.625000,169.62
2019-08-06 15:50:19.640625,167.48
2019-08-06 15:50:19.656250,163.36
2019-08-06 15:50:19.671875,156.85
2019-08-06 15:50:19.687500,147.58
2019-08-06 15:50:19.703125,135.6
2019-08-06 15:50:19.718750,121.43
2019-08-06 15:50:19.734375,105.75
2019-08-06 15:50:19.750000,88.94
2019-08-06 15:50:19.765625,70.12
2019-08-06 15:50:19.781250,47.37
2019-08-06 15:50:19.796875,17.77
2019-08-06 15:50:19.812500,-20.05
2019-08-06 15:50:19.828125,-64.12
2019-08-06 15:50:19.843750,-108.56
2019-08-06 15:50:19.859375,-144.95
2019-08-06 15:50:19.875000,-165.18
2019-08-06 15:50:19.890625,-164.35
2019-08-06 15:50:19.906250,-142.69
2019-08-06 15:50:19.921875,-107.03
2019-08-06 15:50:19.937500,-68.31
2019-08-06 15:50:19.953125,-38.15
2019-08-06 15:50:19.968750,-25.48
2019-08-06 15:50:19.984375,-34.12
2019-08-06 15:50:20.000000,-62.4
2019-08-06 15:50:20.015625,-104.09
2019-08-06 15:50:20.031250,-150.14
2019-08-06 15:50:20.046875,-190.85
2019-08-06 15:50:20.062500,-217.37
2019-08-06 15:50:20.078125,-222.87
2019-08-06 15:50:20.093750,-203.53
2019-08-06 15:50:20.109375,-159.56
2019-08-06 15:50:20.125000,-95.82
2019-08-06 15:50:20.140625,-21.6
2019-08-06 15:50:20.156250,51.07
2019-08-06 15:50:20.171875,110.13
2019-08-06 15:50:20.187500,146.81
2019-08-06 15:50:20.203125,158.48
2019-08-06 15:50:20.218750,149.09
2019-08-06 15:50:20.234375,127.2
2019-08-06 15:50:20.250000,102.46
2019-08-06 15:50:20.265625,82.02
2019-08-06 15:50:20.281250,68.73
2019-08-06 15:50:20.296875,61.3
2019-08-06 15:50:20.312500,55.76
2019-08-06 15:50:20.328125,47.03
2019-08-06 15:50:20.343750,30.6
2019-08-06 15:50:20.359375,3.67
2019-08-06 15:50:20.375000,-33.88
2019-08-06 15:50:20.390625,-78.34
2019-08-06 15:50:20.406250,-122.8
2019-08-06 15:50:20.421875,-158.99
2019-08-06 15:50:20.437500,-180.3
2019-08-06 15:50:20.453125,-183.32
2019-08-06 15:50:20.468750,-171.34
2019-08-06 15:50:20.484375,-152.62
2019-08-06 15:50:20.500000,-136.46
2019-08-06 15:50:20.515625,-129.24
2019-08-06 15:50:20.531250,-132.08
2019-08-06 15:50:20.546875,-141.26
2019-08-06 15:50:20.562500,-150.61
2019-08-06 15:50:20.578125,-154.21
2019-08-06 15:50:20.593750,-147.81
2019-08-06 15:50:20.609375,-129.75
2019-08-06 15:50:20.625000,-98.37
2019-08-06 15:50:20.640625,-52.99
2019-08-06 15:50:20.656250,4.71
2019-08-06 15:50:20.671875,69.42
2019-08-06 15:50:20.687500,132.6
2019-08-06 15:50:20.703125,184.84
2019-08-06 15:50:20.718750,218.8
2019-08-06 15:50:20.734375,232.51
2019-08-06 15:50:20.750000,230.23
2019-08-06 15:50:20.765625,220.15
2019-08-06 15:50:20.781250,210.02
2019-08-06 15:50:20.796875,204.0
2019-08-06 15:50:20.812500,201.63
2019-08-06 15:50:20.828125,199.04
2019-08-06 15:50:20.843750,191.54
2019-08-06 15:50:20.859375,176.47
2019-08-06 15:50:20.875000,152.47
2019-08-06 15:50:20.890625,119.7
2019-08-06 15:50:20.906250,79.29
2019-08-06 15:50:20.921875,32.42
2019-08-06 15:50:20.937500,-20.0
2019-08-06 15:50:20.953125,-77.01
2019-08-06 15:50:20.968750,-136.76
2019-08-06 15:50:20.984375,-195.57
2019-08-06 15:50:21.000000,-247.61
2019-08-06 15:50:21.015625,-285.95
2019-08-06 15:50:21.031250,-304.53
2019-08-06 15:50:21.046875,-300.5
2019-08-06 15:50:21.062500,-275.54
2019-08-06 15:50:21.078125,-234.97
2019-08-06 15:50:21.093750,-185.54
2019-08-06 15:50:21.109375,-132.96
2019-08-06 15:50:21.125000,-81.48
2019-08-06 15:50:21.140625,-34.68
2019-08-06 15:50:21.156250,2.96
2019-08-06 15:50:21.171875,25.97
2019-08-06 15:50:21.187500,29.3
2019-08-06 15:50:21.203125,10.98
2019-08-06 15:50:21.218750,-25.14
2019-08-06 15:50:21.234375,-68.97
2019-08-06 15:50:21.250000,-106.77
2019-08-06 15:50:21.265625,-125.97
2019-08-06 15:50:21.281250,-119.82
2019-08-06 15:50:21.296875,-89.53
2019-08-06 15:50:21.312500,-42.88
2019-08-06 15:50:21.328125,9.28
2019-08-06 15:50:21.343750,57.25
2019-08-06 15:50:21.359375,94.94
2019-08-06 15:50:21.375000,121.43
2019-08-06 15:50:21.390625,139.86
2019-08-06 15:50:21.406250,154.48
2019-08-06 15:50:21.421875,167.99
2019-08-06 15:50:21.437500,180.28
2019-08-06 15:50:21.453125,189.58
2019-08-06 15:50:21.468750,194.19
2019-08-06 15:50:21.484375,194.07
2019-08-06 15:50:21.500000,190.89
2019-08-06 15:50:21.515625,187.01
2019-08-06 15:50:21.531250,183.87
2019-08-06 15:50:21.546875,181.09
2019-08-06 15:50:21.562500,177.06
2019-08-06 15:50:21.578125,170.03
2019-08-06 15:50:21.593750,159.35
2019-08-06 15:50:21.609375,145.93
2019-08-06 15:50:21.625000,131.68
2019-08-06 15:50:21.640625,118.53
2019-08-06 15:50:21.656250,107.59
2019-08-06 15:50:21.671875,98.58
2019-08-06 15:50:21.687500,90.07
2019-08-06 15:50:21.703125,81.28
2019-08-06 15:50:21.718750,70.47
2019-08-06 15:50:21.734375,56.98
2019-08-06 15:50:21.750000,41.43
2019-08-06 15:50:21.765625,25.38
2019-08-06 15:50:21.781250,10.45
2019-08-06 15:50:21.796875,-2.17
2019-08-06 15:50:21.812500,-12.06
2019-08-06 15:50:21.828125,-19.69
2019-08-06 15:50:21.843750,-25.88
2019-08-06 15:50:21.859375,-31.44
2019-08-06 15:50:21.875000,-36.63
2019-08-06 15:50:21.890625,-41.14
2019-08-06 15:50:21.906250,-44.46
2019-08-06 15:50:21.921875,-46.3
2019-08-06 15:50:21.937500,-46.67
2019-08-06 15:50:21.953125,-45.85
2019-08-06 15:50:21.968750,-44.42
2019-08-06 15:50:21.984375,-42.79
2019-08-06 15:50:22.000000,-41.28
2019-08-06 15:50:22.015625,-39.77
2019-08-06 15:50:22.031250,-37.95
2019-08-06 15:50:22.046875,-35.46
2019-08-06 15:50:22.062500,-32.27
2019-08-06 15:50:22.078125,-28.6
2019-08-06 15:50:22.093750,-23.86
2019-08-06 15:50:22.109375,-17.86
2019-08-06 15:50:22.125000,-10.42
2019-08-06 15:50:22.140625,-1.39
2019-08-06 15:50:22.156250,9.4
2019-08-06 15:50:22.171875,21.89
2019-08-06 15:50:22.187500,35.52
2019-08-06 15:50:22.203125,49.01
2019-08-06 15:50:22.218750,60.8
2019-08-06 15:50:22.234375,69.67
2019-08-06 15:50:22.250000,74.95
2019-08-06 15:50:22.265625,76.87
2019-08-06 15:50:22.281250,76.28
2019-08-06 15:50:22.296875,74.32
2019-08-06 15:50:22.312500,71.83
2019-08-06 15:50:22.328125,69.25
2019-08-06 15:50:22.343750,65.75
2019-08-06 15:50:22.359375,60.25
2019-08-06 15:50:22.375000,52.07
2019-08-06 15:50:22.390625,41.53
2019-08-06 15:50:22.406250,30.19
2019-08-06 15:50:22.421875,20.47
2019-08-06 15:50:22.437500,14.62
2019-08-06 15:50:22.453125,13.85
2019-08-06 15:50:22.468750,17.96
2019-08-06 15:50:22.484375,24.28
2019-08-06 15:50:22.500000,29.47
2019-08-06 15:50:22.515625,30.93
2019-08-06 15:50:22.531250,27.79
2019-08-06 15:50:22.546875,21.38
2019-08-06 15:50:22.562500,14.11
2019-08-06 15:50:22.578125,8.14
2019-08-06 15:50:22.593750,4.16
2019-08-06 15:50:22.609375,1.04
2019-08-06 15:50:22.625000,-5.43
2019-08-06 15:50:22.640625,-20.3
2019-08-06 15:50:22.656250,-48.3
2019-08-06 15:50:22.671875,-92.65
2019-08-06 15:50:22.687500,-154.4
2019-08-06 15:50:22.703125,-232.03
2019-08-06 15:50:22.718750,-321.21
2019-08-06 15:50:22.734375,-414.6
2019-08-06 15:50:22.750000,-492.5
2019-08-06 15:50:22.765625,-536.12
2019-08-06 15:50:22.781250,-533.15
2019-08-06 15:50:22.796875,-483.75
2019-08-06 15:50:22.812500,-400.88
2019-08-06 15:50:22.828125,-304.09
2019-08-06 15:50:22.843750,-211.04
2019-08-06 15:50:22.859375,-132.0
2019-08-06 15:50:22.875000,-69.14
2019-08-06 15:50:22.890625,-19.47
2019-08-06 15:50:22.906250,19.51
2019-08-06 15:50:22.921875,48.76
2019-08-06 15:50:22.937500,67.94
2019-08-06 15:50:22.953125,77.22
2019-08-06 15:50:22.968750,78.71
2019-08-06 15:50:22.984375,76.48
2019-08-06 15:50:23.000000,74.75
2019-08-06 15:50:23.015625,76.34
2019-08-06 15:50:23.031250,81.81
2019-08-06 15:50:23.046875,88.63
2019-08-06 15:50:23.062500,93.21
2019-08-06 15:50:23.078125,92.72
2019-08-06 15:50:23.093750,86.29
2019-08-06 15:50:23.109375,75.37
2019-08-06 15:50:23.125000,62.9
2019-08-06 15:50:23.140625,51.75
2019-08-06 15:50:23.156250,43.63
2019-08-06 15:50:23.171875,38.73
2019-08-06 15:50:23.187500,35.19
2019-08-06 15:50:23.203125,30.55
2019-08-06 15:50:23.218750,22.8
2019-08-06 15:50:23.234375,11.21
2019-08-06 15:50:23.250000,-3.5
2019-08-06 15:50:23.265625,-19.53
2019-08-06 15:50:23.281250,-35.21
2019-08-06 15:50:23.296875,-49.49
2019-08-06 15:50:23.312500,-62.23
2019-08-06 15:50:23.328125,-74.34
2019-08-06 15:50:23.343750,-87.15
2019-08-06 15:50:23.359375,-101.75
2019-08-06 15:50:23.375000,-118.64
2019-08-06 15:50:23.390625,-137.54
2019-08-06 15:50:23.406250,-157.36
2019-08-06 15:50:23.421875,-176.78
2019-08-06 15:50:23.437500,-194.46
2019-08-06 15:50:23.453125,-209.1
2019-08-06 15:50:23.468750,-219.68
2019-08-06 15:50:23.484375,-225.44
2019-08-06 15:50:23.500000,-225.8
2019-08-06 15:50:23.515625,-220.49
2019-08-06 15:50:23.531250,-210.75
2019-08-06 15:50:23.546875,-196.53
2019-08-06 15:50:23.562500,-177.85
2019-08-06 15:50:23.578125,-154.99
2019-08-06 15:50:23.593750,-128.61
2019-08-06 15:50:23.609375,-99.92
2019-08-06 15:50:23.625000,-70.83
2019-08-06 15:50:23.640625,-43.71
2019-08-06 15:50:23.656250,-21.25
2019-08-06 15:50:23.671875,-5.88
2019-08-06 15:50:23.687500,1.14
2019-08-06 15:50:23.703125,-0.05
2019-08-06 15:50:23.718750,-7.59
2019-08-06 15:50:23.734375,-18.26
2019-08-06 15:50:23.750000,-28.28
2019-08-06 15:50:23.765625,-34.29
2019-08-06 15:50:23.781250,-33.9
2019-08-06 15:50:23.796875,-26.06
2019-08-06 15:50:23.812500,-10.57
2019-08-06 15:50:23.828125,12.53
2019-08-06 15:50:23.843750,43.32
2019-08-06 15:50:23.859375,82.15
2019-08-06 15:50:23.875000,129.26
2019-08-06 15:50:23.890625,184.43
2019-08-06 15:50:23.906250,245.48
2019-08-06 15:50:23.921875,309.99
2019-08-06 15:50:23.937500,375.04
2019-08-06 15:50:23.953125,436.78
2019-08-06 15:50:23.968750,489.75
2019-08-06 15:50:23.984375,526.8
2019-08-06 15:50:24.000000,540.46
2019-08-06 15:50:24.015625,525.69
2019-08-06 15:50:24.031250,482.58
2019-08-06 15:50:24.046875,417.51
2019-08-06 15:50:24.062500,341.83
2019-08-06 15:50:24.078125,267.91
2019-08-06 15:50:24.093750,205.0
2019-08-06 15:50:24.109375,156.93
2019-08-06 15:50:24.125000,122.3
2019-08-06 15:50:24.140625,97.05
2019-08-06 15:50:24.156250,77.34
2019-08-06 15:50:24.171875,61.23
2019-08-06 15:50:24.187500,48.36
2019-08-06 15:50:24.203125,38.76
2019-08-06 15:50:24.218750,31.56
2019-08-06 15:50:24.234375,24.77
2019-08-06 15:50:24.250000,16.42
2019-08-06 15:50:24.265625,5.45
2019-08-06 15:50:24.281250,-7.52
2019-08-06 15:50:24.296875,-20.84
2019-08-06 15:50:24.312500,-32.57
2019-08-06 15:50:24.328125,-41.63
2019-08-06 15:50:24.343750,-48.14
2019-08-06 15:50:24.359375,-53.25
2019-08-06 15:50:24.375000,-58.58
2019-08-06 15:50:24.390625,-65.18
2019-08-06 15:50:24.406250,-73.05
2019-08-06 15:50:24.421875,-81.01
2019-08-06 15:50:24.437500,-87.25
2019-08-06 15:50:24.453125,-90.02
2019-08-06 15:50:24.468750,-88.39
2019-08-06 15:50:24.484375,-82.56
2019-08-06 15:50:24.500000,-73.45
2019-08-06 15:50:24.515625,-62.9
2019-08-06 15:50:24.531250,-52.56
2019-08-06 15:50:24.546875,-43.43
2019-08-06 15:50:24.562500,-35.71
2019-08-06 15:50:24.578125,-29.02
2019-08-06 15:50:24.593750,-22.76
2019-08-06 15:50:24.609375,-16.48
2019-08-06 15:50:24.625000,-10.13
2019-08-06 15:50:24.640625,-4.0
2019-08-06 15:50:24.656250,1.4
2019-08-06 15:50:24.671875,5.73
2019-08-06 15:50:24.687500,8.91
2019-08-06 15:50:24.703125,11.26
2019-08-06 15:50:24.718750,13.29
2019-08-06 15:50:24.734375,15.58
2019-08-06 15:50:24.750000,18.69
2019-08-06 15:50:24.765625,22.66
2019-08-06 15:50:24.781250,27.25
2019-08-06 15:50:24.796875,31.94
2019-08-06 15:50:24.812500,36.2
2019-08-06 15:50:24.828125,39.7
2019-08-06 15:50:24.843750,42.41
2019-08-06 15:50:24.859375,44.7
2019-08-06 15:50:24.875000,47.07
2019-08-06 15:50:24.890625,50.06
2019-08-06 15:50:24.906250,53.83
2019-08-06 15:50:24.921875,57.98
2019-08-06 15:50:24.937500,61.55
2019-08-06 15:50:24.953125,63.29
2019-08-06 15:50:24.968750,62.04
2019-08-06 15:50:24.984375,57.1
2019-08-06 15:50:25.000000,48.59
2019-08-06 15:50:25.015625,36.82
2019-08-06 15:50:25.031250,22.46
2019-08-06 15:50:25.046875,6.03
2019-08-06 15:50:25.062500,-12.44
2019-08-06 15:50:25.078125,-33.24
2019-08-06 15:50:25.093750,-56.73
2019-08-06 15:50:25.109375,-82.71
2019-08-06 15:50:25.125000,-109.86
2019-08-06 15:50:25.140625,-135.74
2019-08-06 15:50:25.156250,-157.17
2019-08-06 15:50:25.171875,-171.1
2019-08-06 15:50:25.187500,-175.39
2019-08-06 15:50:25.203125,-169.42
2019-08-06 15:50:25.218750,-154.09
2019-08-06 15:50:25.234375,-131.51
2019-08-06 15:50:25.250000,-104.34
2019-08-06 15:50:25.265625,-75.54
2019-08-06 15:50:25.281250,-48.21
2019-08-06 15:50:25.296875,-24.99
2019-08-06 15:50:25.312500,-7.09
2019-08-06 15:50:25.328125,6.38
2019-08-06 15:50:25.343750,18.47
2019-08-06 15:50:25.359375,32.96
2019-08-06 15:50:25.375000,52.34
2019-08-06 15:50:25.390625,75.82
2019-08-06 15:50:25.406250,99.13
2019-08-06 15:50:25.421875,115.96
2019-08-06 15:50:25.437500,120.87
2019-08-06 15:50:25.453125,112.15
2019-08-06 15:50:25.468750,92.55
2019-08-06 15:50:25.484375,67.64
2019-08-06 15:50:25.500000,43.08
2019-08-06 15:50:25.515625,22.46
2019-08-06 15:50:25.531250,6.65
2019-08-06 15:50:25.546875,-5.17
2019-08-06 15:50:25.562500,-14.1
2019-08-06 15:50:25.578125,-20.21
2019-08-06 15:50:25.593750,-22.93
2019-08-06 15:50:25.609375,-21.79
2019-08-06 15:50:25.625000,-17.37
2019-08-06 15:50:25.640625,-11.25
2019-08-06 15:50:25.656250,-5.43
2019-08-06 15:50:25.671875,-1.63
2019-08-06 15:50:25.687500,-0.42
2019-08-06 15:50:25.703125,-1.18
2019-08-06 15:50:25.718750,-2.31
2019-08-06 15:50:25.734375,-2.29
2019-08-06 15:50:25.750000,-0.22
2019-08-06 15:50:25.765625,3.77
2019-08-06 15:50:25.781250,8.74
2019-08-06 15:50:25.796875,13.38
2019-08-06 15:50:25.812500,16.66
2019-08-06 15:50:25.828125,18.23
2019-08-06 15:50:25.843750,18.17
2019-08-06 15:50:25.859375,17.57
2019-08-06 15:50:25.875000,17.47
2019-08-06 15:50:25.890625,18.46
2019-08-06 15:50:25.906250,20.52
2019-08-06 15:50:25.921875,23.13
2019-08-06 15:50:25.937500,25.57
2019-08-06 15:50:25.953125,27.26
2019-08-06 15:50:25.968750,28.03
2019-08-06 15:50:25.984375,28.11
2019-08-06 15:50:26.000000,28.04
2019-08-06 15:50:26.015625,28.28
2019-08-06 15:50:26.031250,29.12
2019-08-06 15:50:26.046875,30.5
2019-08-06 15:50:26.062500,32.2
2019-08-06 15:50:26.078125,33.86
2019-08-06 15:50:26.093750,35.21
2019-08-06 15:50:26.109375,36.11
2019-08-06 15:50:26.125000,36.63
2019-08-06 15:50:26.140625,36.94
2019-08-06 15:50:26.156250,37.17
2019-08-06 15:50:26.171875,37.38
2019-08-06 15:50:26.187500,37.52
2019-08-06 15:50:26.203125,37.51
2019-08-06 15:50:26.218750,37.21
2019-08-06 15:50:26.234375,36.51
2019-08-06 15:50:26.250000,35.33
2019-08-06 15:50:26.265625,33.6
2019-08-06 15:50:26.281250,31.31
2019-08-06 15:50:26.296875,28.39
2019-08-06 15:50:26.312500,24.76
2019-08-06 15:50:26.328125,20.39
2019-08-06 15:50:26.343750,15.24
2019-08-06 15:50:26.359375,9.24
2019-08-06 15:50:26.375000,2.38
2019-08-06 15:50:26.390625,-5.44
2019-08-06 15:50:26.406250,-14.32
2019-08-06 15:50:26.421875,-24.39
2019-08-06 15:50:26.437500,-35.81
2019-08-06 15:50:26.453125,-48.73
2019-08-06 15:50:26.468750,-63.22
2019-08-06 15:50:26.484375,-79.33
2019-08-06 15:50:26.500000,-97.12
2019-08-06 15:50:26.515625,-116.54
2019-08-06 15:50:26.531250,-137.6
2019-08-06 15:50:26.546875,-160.31
2019-08-06 15:50:26.562500,-184.65
2019-08-06 15:50:26.578125,-210.35
2019-08-06 15:50:26.593750,-237.27
2019-08-06 15:50:26.609375,-265.03
2019-08-06 15:50:26.625000,-293.22
2019-08-06 15:50:26.640625,-321.37
2019-08-06 15:50:26.656250,-349.04
2019-08-06 15:50:26.671875,-375.94
2019-08-06 15:50:26.687500,-401.92
2019-08-06 15:50:26.703125,-426.74
2019-08-06 15:50:26.718750,-450.0
2019-08-06 15:50:26.734375,-471.12
2019-08-06 15:50:26.750000,-488.95
2019-08-06 15:50:26.765625,-501.85
2019-08-06 15:50:26.781250,-508.15
2019-08-06 15:50:26.796875,-505.39
2019-08-06 15:50:26.812500,-491.05
2019-08-06 15:50:26.828125,-462.97
2019-08-06 15:50:26.843750,-419.84
2019-08-06 15:50:26.859375,-361.65
2019-08-06 15:50:26.875000,-289.92
2019-08-06 15:50:26.890625,-207.58
2019-08-06 15:50:26.906250,-118.7
2019-08-06 15:50:26.921875,-27.83
2019-08-06 15:50:26.937500,60.46
2019-08-06 15:50:26.953125,142.06
2019-08-06 15:50:26.968750,213.68
2019-08-06 15:50:26.984375,273.21
2019-08-06 15:50:27.000000,319.66
2019-08-06 15:50:27.015625,353.21
2019-08-06 15:50:27.031250,374.98
2019-08-06 15:50:27.046875,386.83
2019-08-06 15:50:27.062500,390.74
2019-08-06 15:50:27.078125,388.86
2019-08-06 15:50:27.093750,382.98
2019-08-06 15:50:27.109375,374.35
2019-08-06 15:50:27.125000,363.75
2019-08-06 15:50:27.140625,351.51
2019-08-06 15:50:27.156250,337.71
2019-08-06 15:50:27.171875,322.34
2019-08-06 15:50:27.187500,305.21
2019-08-06 15:50:27.203125,286.17
2019-08-06 15:50:27.218750,265.31
2019-08-06 15:50:27.234375,242.73
2019-08-06 15:50:27.250000,218.65
2019-08-06 15:50:27.265625,193.39
2019-08-06 15:50:27.281250,167.33
2019-08-06 15:50:27.296875,140.93
2019-08-06 15:50:27.312500,114.66
2019-08-06 15:50:27.328125,89.0
2019-08-06 15:50:27.343750,64.42
2019-08-06 15:50:27.359375,41.31
2019-08-06 15:50:27.375000,19.99
2019-08-06 15:50:27.390625,0.63
2019-08-06 15:50:27.406250,-16.74
2019-08-06 15:50:27.421875,-32.17
2019-08-06 15:50:27.437500,-45.85
2019-08-06 15:50:27.453125,-57.98
2019-08-06 15:50:27.468750,-68.86
2019-08-06 15:50:27.484375,-78.73
2019-08-06 15:50:27.500000,-87.82
2019-08-06 15:50:27.515625,-96.3
2019-08-06 15:50:27.531250,-104.26
2019-08-06 15:50:27.546875,-111.76
2019-08-06 15:50:27.562500,-118.79
2019-08-06 15:50:27.578125,-125.29
2019-08-06 15:50:27.593750,-131.16
2019-08-06 15:50:27.609375,-136.27
2019-08-06 15:50:27.625000,-140.45
2019-08-06 15:50:27.640625,-143.52
2019-08-06 15:50:27.656250,-145.32
2019-08-06 15:50:27.671875,-145.71
2019-08-06 15:50:27.687500,-144.6
2019-08-06 15:50:27.703125,-141.96
2019-08-06 15:50:27.718750,-137.82
2019-08-06 15:50:27.734375,-132.22
2019-08-06 15:50:27.750000,-125.27
2019-08-06 15:50:27.765625,-117.06
2019-08-06 15:50:27.781250,-107.96
2019-08-06 15:50:27.796875,-98.24
2019-08-06 15:50:27.812500,-88.2
2019-08-06 15:50:27.828125,-78.13
2019-08-06 15:50:27.843750,-68.29
2019-08-06 15:50:27.859375,-58.93
2019-08-06 15:50:27.875000,-50.22
2019-08-06 15:50:27.890625,-42.3
2019-08-06 15:50:27.906250,-35.28
2019-08-06 15:50:27.921875,-29.21
2019-08-06 15:50:27.937500,-24.11
2019-08-06 15:50:27.953125,-19.97
2019-08-06 15:50:27.968750,-16.86
2019-08-06 15:50:27.984375,-14.86
2019-08-06 15:50:28.000000,-14.08
2019-08-06 15:50:28.015625,-14.64
2019-08-06 15:50:28.031250,-16.73
2019-08-06 15:50:28.046875,-20.46
2019-08-06 15:50:28.062500,-25.91
2019-08-06 15:50:28.078125,-33.09
2019-08-06 15:50:28.093750,-41.88
2019-08-06 15:50:28.109375,-52.08
2019-08-06 15:50:28.125000,-63.35
2019-08-06 15:50:28.140625,-75.27
2019-08-06 15:50:28.156250,-87.34
2019-08-06 15:50:28.171875,-98.97
2019-08-06 15:50:28.187500,-109.52
2019-08-06 15:50:28.203125,-118.33
2019-08-06 15:50:28.218750,-124.75
2019-08-06 15:50:28.234375,-128.22
2019-08-06 15:50:28.250000,-128.31
2019-08-06 15:50:28.265625,-124.79
2019-08-06 15:50:28.281250,-117.62
2019-08-06 15:50:28.296875,-106.91
2019-08-06 15:50:28.312500,-92.93
2019-08-06 15:50:28.328125,-75.97
2019-08-06 15:50:28.343750,-56.37
2019-08-06 15:50:28.359375,-34.48
2019-08-06 15:50:28.375000,-10.76
2019-08-06 15:50:28.390625,14.21
2019-08-06 15:50:28.406250,39.64
2019-08-06 15:50:28.421875,64.55
2019-08-06 15:50:28.437500,87.87
2019-08-06 15:50:28.453125,108.55
2019-08-06 15:50:28.468750,125.7
2019-08-06 15:50:28.484375,138.7
2019-08-06 15:50:28.500000,147.24
2019-08-06 15:50:28.515625,151.23
2019-08-06 15:50:28.531250,150.71
2019-08-06 15:50:28.546875,145.84
2019-08-06 15:50:28.562500,136.89
2019-08-06 15:50:28.578125,124.33
2019-08-06 15:50:28.593750,108.93
2019-08-06 15:50:28.609375,91.86
2019-08-06 15:50:28.625000,74.67
2019-08-06 15:50:28.640625,59.07
2019-08-06 15:50:28.656250,46.65
2019-08-06 15:50:28.671875,38.57
2019-08-06 15:50:28.687500,35.4
2019-08-06 15:50:28.703125,37.09
2019-08-06 15:50:28.718750,43.18
2019-08-06 15:50:28.734375,52.92
2019-08-06 15:50:28.750000,65.61
2019-08-06 15:50:28.765625,80.81
2019-08-06 15:50:28.781250,98.47
2019-08-06 15:50:28.796875,119.04
2019-08-06 15:50:28.812500,143.49
2019-08-06 15:50:28.828125,173.06
2019-08-06 15:50:28.843750,208.55
2019-08-06 15:50:28.859375,249.65
2019-08-06 15:50:28.875000,294.43
2019-08-06 15:50:28.890625,339.59
2019-08-06 15:50:28.906250,381.3
2019-08-06 15:50:28.921875,416.34
2019-08-06 15:50:28.937500,443.04
2019-08-06 15:50:28.953125,461.72
2019-08-06 15:50:28.968750,474.42
2019-08-06 15:50:28.984375,484.22
2019-08-06 15:50:29.000000,494.48
2019-08-06 15:50:29.015625,508.34
2019-08-06 15:50:29.031250,527.66
2019-08-06 15:50:29.046875,553.7
2019-08-06 15:50:29.062500,586.84
2019-08-06 15:50:29.078125,626.4
2019-08-06 15:50:29.093750,670.46
2019-08-06 15:50:29.109375,715.95
2019-08-06 15:50:29.125000,758.97
2019-08-06 15:50:29.140625,795.25
2019-08-06 15:50:29.156250,820.55
2019-08-06 15:50:29.171875,831.09
2019-08-06 15:50:29.187500,823.99
2019-08-06 15:50:29.203125,797.44
2019-08-06 15:50:29.218750,750.9
2019-08-06 15:50:29.234375,685.07
2019-08-06 15:50:29.250000,601.82
2019-08-06 15:50:29.265625,504.01
2019-08-06 15:50:29.281250,395.21
2019-08-06 15:50:29.296875,279.41
2019-08-06 15:50:29.312500,160.82
2019-08-06 15:50:29.328125,43.63
2019-08-06 15:50:29.343750,-68.31
2019-08-06 15:50:29.359375,-171.77
2019-08-06 15:50:29.375000,-264.39
2019-08-06 15:50:29.390625,-344.73
2019-08-06 15:50:29.406250,-412.22
2019-08-06 15:50:29.421875,-467.03
2019-08-06 15:50:29.437500,-509.84
2019-08-06 15:50:29.453125,-541.65
2019-08-06 15:50:29.468750,-563.49
2019-08-06 15:50:29.484375,-576.39
2019-08-06 15:50:29.500000,-581.36
2019-08-06 15:50:29.515625,-579.4
2019-08-06 15:50:29.531250,-571.51
2019-08-06 15:50:29.546875,-558.73
2019-08-06 15:50:29.562500,-542.1
2019-08-06 15:50:29.578125,-522.59
2019-08-06 15:50:29.593750,-501.07
2019-08-06 15:50:29.609375,-478.22
2019-08-06 15:50:29.625000,-454.56
2019-08-06 15:50:29.640625,-430.44
2019-08-06 15:50:29.656250,-406.15
2019-08-06 15:50:29.671875,-381.88
2019-08-06 15:50:29.687500,-357.84
2019-08-06 15:50:29.703125,-334.22
2019-08-06 15:50:29.718750,-311.21
2019-08-06 15:50:29.734375,-288.96
2019-08-06 15:50:29.750000,-267.61
2019-08-06 15:50:29.765625,-247.25
2019-08-06 15:50:29.781250,-227.89
2019-08-06 15:50:29.796875,-209.55
2019-08-06 15:50:29.812500,-192.2
2019-08-06 15:50:29.828125,-175.81
2019-08-06 15:50:29.843750,-160.37
2019-08-06 15:50:29.859375,-145.87
2019-08-06 15:50:29.875000,-132.28
2019-08-06 15:50:29.890625,-119.61
2019-08-06 15:50:29.906250,-107.83
2019-08-06 15:50:29.921875,-96.92
2019-08-06 15:50:29.937500,-86.83
2019-08-06 15:50:29.953125,-77.53
2019-08-06 15:50:29.968750,-68.97
2019-08-06 15:50:29.984375,-61.13
2019-08-06 15:50:30.000000,-53.98
2019-08-06 15:50:30.015625,-47.5
2019-08-06 15:50:30.031250,-41.59
2019-08-06 15:50:30.046875,-36.28
2019-08-06 15:50:30.062500,-31.53
2019-08-06 15:50:30.078125,-27.33
2019-08-06 15:50:30.093750,-23.64
2019-08-06 15:50:30.109375,-20.43
2019-08-06 15:50:30.125000,-17.66
2019-08-06 15:50:30.140625,-15.27
2019-08-06 15:50:30.156250,-13.23
2019-08-06 15:50:30.171875,-11.48
2019-08-06 15:50:30.187500,-10.01
2019-08-06 15:50:30.203125,-8.78
2019-08-06 15:50:30.218750,-7.74
2019-08-06 15:50:30.234375,-6.86
2019-08-06 15:50:30.250000,-6.11
2019-08-06 15:50:30.265625,-5.49
2019-08-06 15:50:30.281250,-4.95
2019-08-06 15:50:30.296875,-4.49
2019-08-06 15:50:30.312500,-4.09
2019-08-06 15:50:30.328125,-3.76
2019-08-06 15:50:30.343750,-3.47
2019-08-06 15:50:30.359375,-3.22
2019-08-06 15:50:30.375000,-3.0
2019-08-06 15:50:30.390625,-2.8
2019-08-06 15:50:30.406250,-2.62
2019-08-06 15:50:30.421875,-2.46
2019-08-06 15:50:30.437500,-2.31
2019-08-06 15:50:30.453125,-2.18
2019-08-06 15:50:30.468750,-2.06
2019-08-06 15:50:30.484375,-1.95
2019-08-06 15:50:30.500000,-1.86
2019-08-06 15:50:30.515625,-1.76
2019-08-06 15:50:30.531250,-1.68
2019-08-06 15:50:30.546875,-1.6
2019-08-06 15:50:30.562500,-1.53
2019-08-06 15:50:30.578125,-1.46
2019-08-06 15:50:30.593750,-1.4
2019-08-06 15:50:30.609375,-1.34
2019-08-06 15:50:30.625000,-1.28
2019-08-06 15:50:30.640625,-1.23
2019-08-06 15:50:30.656250,-1.18
2019-08-06 15:50:30.671875,-1.14
2019-08-06 15:50:30.687500,-1.1
2019-08-06 15:50:30.703125,-1.06
2019-08-06 15:50:30.718750,-1.02
2019-08-06 15:50:30.734375,-0.98
2019-08-06 15:50:30.750000,-0.95
2019-08-06 15:50:30.765625,-0.92
2019-08-06 15:50:30.781250,-0.89
2019-08-06 15:50:30.796875,-0.86
2019-08-06 15:50:30.812500,-0.84
2019-08-06 15:50:30.828125,-0.81
2019-08-06 15:50:30.843750,-0.79
2019-08-06 15:50:30.859375,-0.75
2019-08-06 15:50:30.875000,-0.73
2019-08-06 15:50:30.890625,-0.71
2019-08-06 15:50:30.906250,-0.69
2019-08-06 15:50:30.921875,-0.67
2019-08-06 15:50:30.937500,-0.65
2019-08-06 15:50:30.953125,-0.64
2019-08-06 15:50:30.968750,-0.61
2019-08-06 15:50:30.984375,-0.6
2019-08-06 15:50:31.000000,-0.58
2019-08-06 15:50:31.015625,-0.57
2019-08-06 15:50:31.031250,-0.54
2019-08-06 15:50:31.046875,-0.53
2019-08-06 15:50:31.062500,-0.51
2019-08-06 15:50:31.078125,-0.5
2019-08-06 15:50:31.093750,-0.48
2019-08-06 15:50:31.109375,-0.47
2019-08-06 15:50:31.125000,-0.47
2019-08-06 15:50:31.140625,-0.48
2019-08-06 15:50:31.156250,-0.5
2019-08-06 15:50:31.171875,-0.54
2019-08-06 15:50:31.187500,-0.6
2019-08-06 15:50:31.203125,-0.67
2019-08-06 15:50:31.218750,-0.75
2019-08-06 15:50:31.234375,-0.83
2019-08-06 15:50:31.250000,-0.91
2019-08-06 15:50:31.265625,-0.97
2019-08-06 15:50:31.281250,-1.03
2019-08-06 15:50:31.296875,-1.06
2019-08-06 15:50:31.312500,-1.05
2019-08-06 15:50:31.328125,-1.02
2019-08-06 15:50:31.343750,-0.98
2019-08-06 15:50:31.359375,-0.91
2019-08-06 15:50:31.375000,-0.82
2019-08-06 15:50:31.390625,-0.73
2019-08-06 15:50:31.406250,-0.65
2019-08-06 15:50:31.421875,-0.58
2019-08-06 15:50:31.437500,-0.52
2019-08-06 15:50:31.453125,-0.49
2019-08-06 15:50:31.468750,-0.48
2019-08-06 15:50:31.484375,-0.48
2019-08-06 15:50:31.500000,-0.5
2019-08-06 15:50:31.515625,-0.53
2019-08-06 15:50:31.531250,-0.58
2019-08-06 15:50:31.546875,-0.63
2019-08-06 15:50:31.562500,-0.72
2019-08-06 15:50:31.578125,-0.82
2019-08-06 15:50:31.593750,-0.94
2019-08-06 15:50:31.609375,-1.08
2019-08-06 15:50:31.625000,-1.25
2019-08-06 15:50:31.640625,-1.43
2019-08-06 15:50:31.656250,-1.61
2019-08-06 15:50:31.671875,-1.79
2019-08-06 15:50:31.687500,-1.96
2019-08-06 15:50:31.703125,-2.13
2019-08-06 15:50:31.718750,-2.29
2019-08-06 15:50:31.734375,-2.44
2019-08-06 15:50:31.750000,-2.59
2019-08-06 15:50:31.765625,-2.73
2019-08-06 15:50:31.781250,-2.85
2019-08-06 15:50:31.796875,-2.93
2019-08-06 15:50:31.812500,-2.97
2019-08-06 15:50:31.828125,-2.95
2019-08-06 15:50:31.843750,-2.9
2019-08-06 15:50:31.859375,-2.8
2019-08-06 15:50:31.875000,-2.62
2019-08-06 15:50:31.890625,-2.4
2019-08-06 15:50:31.906250,-2.12
2019-08-06 15:50:31.921875,-1.79
2019-08-06 15:50:31.937500,-1.35
2019-08-06 15:50:31.953125,-0.82
2019-08-06 15:50:31.968750,-0.17
2019-08-06 15:50:31.984375,0.45
2019-08-06 15:50:32.000000,1.01
2019-08-06 15:50:32.015625,1.51
2019-08-06 15:50:32.031250,1.96
2019-08-06 15:50:32.046875,2.51
2019-08-06 15:50:32.062500,3.45
2019-08-06 15:50:32.078125,5.28
2019-08-06 15:50:32.093750,8.59
2019-08-06 15:50:32.109375,14.09
2019-08-06 15:50:32.125000,22.27
2019-08-06 15:50:32.140625,33.48
2019-08-06 15:50:32.156250,47.75
2019-08-06 15:50:32.171875,64.64
2019-08-06 15:50:32.187500,83.2
2019-08-06 15:50:32.203125,102.16
2019-08-06 15:50:32.218750,119.8
2019-08-06 15:50:32.234375,134.19
2019-08-06 15:50:32.250000,143.6
2019-08-06 15:50:32.265625,146.57
2019-08-06 15:50:32.281250,142.26
2019-08-06 15:50:32.296875,130.49
2019-08-06 15:50:32.312500,111.85
2019-08-06 15:50:32.328125,87.69
2019-08-06 15:50:32.343750,59.71
2019-08-06 15:50:32.359375,30.66
2019-08-06 15:50:32.375000,2.86
2019-08-06 15:50:32.390625,-21.77
2019-08-06 15:50:32.406250,-41.94
2019-08-06 15:50:32.421875,-57.16
2019-08-06 15:50:32.437500,-67.63
2019-08-06 15:50:32.453125,-74.09
2019-08-06 15:50:32.468750,-77.35
2019-08-06 15:50:32.484375,-78.47
2019-08-06 15:50:32.500000,-77.82
2019-08-06 15:50:32.515625,-75.85
2019-08-06 15:50:32.531250,-72.85
2019-08-06 15:50:32.546875,-69.2
2019-08-06 15:50:32.562500,-65.46
2019-08-06 15:50:32.578125,-62.27
2019-08-06 15:50:32.593750,-60.25
2019-08-06 15:50:32.609375,-59.48
2019-08-06 15:50:32.625000,-59.64
2019-08-06 15:50:32.640625,-59.98
2019-08-06 15:50:32.656250,-59.79
2019-08-06 15:50:32.671875,-58.51
2019-08-06 15:50:32.687500,-56.13
2019-08-06 15:50:32.703125,-53.28
2019-08-06 15:50:32.718750,-50.96
2019-08-06 15:50:32.734375,-50.12
2019-08-06 15:50:32.750000,-51.14
2019-08-06 15:50:32.765625,-53.66
2019-08-06 15:50:32.781250,-56.61
2019-08-06 15:50:32.796875,-58.81
2019-08-06 15:50:32.812500,-59.45
2019-08-06 15:50:32.828125,-58.4
2019-08-06 15:50:32.843750,-56.29
2019-08-06 15:50:32.859375,-54.14
2019-08-06 15:50:32.875000,-52.9
2019-08-06 15:50:32.890625,-53.29
2019-08-06 15:50:32.906250,-55.72
2019-08-06 15:50:32.921875,-60.29
2019-08-06 15:50:32.937500,-66.35
2019-08-06 15:50:32.953125,-72.03
2019-08-06 15:50:32.968750,-74.14
2019-08-06 15:50:32.984375,-68.94
2019-08-06 15:50:33.000000,-53.85
2019-08-06 15:50:33.015625,-29.1
2019-08-06 15:50:33.031250,1.64
2019-08-06 15:50:33.046875,32.3
2019-08-06 15:50:33.062500,56.74
2019-08-06 15:50:33.078125,71.2
2019-08-06 15:50:33.093750,75.54
2019-08-06 15:50:33.109375,72.62
2019-08-06 15:50:33.125000,66.41
2019-08-06 15:50:33.140625,59.88
2019-08-06 15:50:33.156250,54.14
2019-08-06 15:50:33.171875,48.84
2019-08-06 15:50:33.187500,43.34
2019-08-06 15:50:33.203125,37.7
2019-08-06 15:50:33.218750,32.84
2019-08-06 15:50:33.234375,29.82
2019-08-06 15:50:33.250000,28.99
2019-08-06 15:50:33.265625,29.69
2019-08-06 15:50:33.281250,30.58
2019-08-06 15:50:33.296875,30.31
2019-08-06 15:50:33.312500,28.17
2019-08-06 15:50:33.328125,24.46
2019-08-06 15:50:33.343750,20.21
2019-08-06 15:50:33.359375,16.65
2019-08-06 15:50:33.375000,14.66
2019-08-06 15:50:33.390625,14.35
2019-08-06 15:50:33.406250,15.11
2019-08-06 15:50:33.421875,15.92
2019-08-06 15:50:33.437500,15.88
2019-08-06 15:50:33.453125,14.55
2019-08-06 15:50:33.468750,12.14
2019-08-06 15:50:33.484375,9.32
2019-08-06 15:50:33.500000,6.9
2019-08-06 15:50:33.515625,5.41
2019-08-06 15:50:33.531250,4.95
2019-08-06 15:50:33.546875,5.17
2019-08-06 15:50:33.562500,5.45
2019-08-06 15:50:33.578125,5.32
2019-08-06 15:50:33.593750,4.5
2019-08-06 15:50:33.609375,3.13
2019-08-06 15:50:33.625000,1.51
2019-08-06 15:50:33.640625,0.07
2019-08-06 15:50:33.656250,-0.94
2019-08-06 15:50:33.671875,-1.48
2019-08-06 15:50:33.687500,-1.75
2019-08-06 15:50:33.703125,-2.04
2019-08-06 15:50:33.718750,-2.59
2019-08-06 15:50:33.734375,-3.48
2019-08-06 15:50:33.750000,-4.7
2019-08-06 15:50:33.765625,-6.12
2019-08-06 15:50:33.781250,-7.61
2019-08-06 15:50:33.796875,-9.04
2019-08-06 15:50:33.812500,-10.43
2019-08-06 15:50:33.828125,-11.72
2019-08-06 15:50:33.843750,-13.03
2019-08-06 15:50:33.859375,-14.4
2019-08-06 15:50:33.875000,-15.9
2019-08-06 15:50:33.890625,-17.62
2019-08-06 15:50:33.906250,-19.85
2019-08-06 15:50:33.921875,-23.01
2019-08-06 15:50:33.937500,-27.55
2019-08-06 15:50:33.953125,-34.1
2019-08-06 15:50:33.968750,-43.01
2019-08-06 15:50:33.984375,-54.59
2019-08-06 15:50:34.000000,-68.57
2019-08-06 15:50:34.015625,-84.12
2019-08-06 15:50:34.031250,-99.88
2019-08-06 15:50:34.046875,-113.94
2019-08-06 15:50:34.062500,-124.56
2019-08-06 15:50:34.078125,-129.54
2019-08-06 15:50:34.093750,-127.08
2019-08-06 15:50:34.109375,-116.22
2019-08-06 15:50:34.125000,-97.09
2019-08-06 15:50:34.140625,-70.74
2019-08-06 15:50:34.156250,-39.26
2019-08-06 15:50:34.171875,-5.57
2019-08-06 15:50:34.187500,27.15
2019-08-06 15:50:34.203125,55.55
2019-08-06 15:50:34.218750,76.89
2019-08-06 15:50:34.234375,89.23
2019-08-06 15:50:34.250000,91.72
2019-08-06 15:50:34.265625,84.6
2019-08-06 15:50:34.281250,69.3
2019-08-06 15:50:34.296875,48.16
2019-08-06 15:50:34.312500,23.83
2019-08-06 15:50:34.328125,-0.66
2019-08-06 15:50:34.343750,-22.65
2019-08-06 15:50:34.359375,-39.78
2019-08-06 15:50:34.375000,-50.3
2019-08-06 15:50:34.390625,-53.17
2019-08-06 15:50:34.406250,-48.1
2019-08-06 15:50:34.421875,-35.49
2019-08-06 15:50:34.437500,-16.28
2019-08-06 15:50:34.453125,7.59
2019-08-06 15:50:34.468750,34.02
2019-08-06 15:50:34.484375,60.35
2019-08-06 15:50:34.500000,84.08
2019-08-06 15:50:34.515625,103.2
2019-08-06 15:50:34.531250,116.06
2019-08-06 15:50:34.546875,121.95
2019-08-06 15:50:34.562500,120.85
2019-08-06 15:50:34.578125,113.19
2019-08-06 15:50:34.593750,99.39
2019-08-06 15:50:34.609375,80.23
2019-08-06 15:50:34.625000,56.26
2019-08-06 15:50:34.640625,28.33
2019-08-06 15:50:34.656250,-2.03
2019-08-06 15:50:34.671875,-32.98
2019-08-06 15:50:34.687500,-61.75
2019-08-06 15:50:34.703125,-85.23
2019-08-06 15:50:34.718750,-100.77
2019-08-06 15:50:34.734375,-106.74
2019-08-06 15:50:34.750000,-102.18
2019-08-06 15:50:34.765625,-87.85
2019-08-06 15:50:34.781250,-65.6
2019-08-06 15:50:34.796875,-37.64
2019-08-06 15:50:34.812500,-6.55
2019-08-06 15:50:34.828125,25.96
2019-08-06 15:50:34.843750,58.53
2019-08-06 15:50:34.859375,89.69
2019-08-06 15:50:34.875000,117.49
2019-08-06 15:50:34.890625,140.24
2019-08-06 15:50:34.906250,155.53
2019-08-06 15:50:34.921875,161.67
2019-08-06 15:50:34.937500,161.03
2019-08-06 15:50:34.953125,153.63
2019-08-06 15:50:34.968750,141.21
2019-08-06 15:50:34.984375,126.22
2019-08-06 15:50:35.000000,111.16
2019-08-06 15:50:35.015625,95.68
2019-08-06 15:50:35.031250,83.34
2019-08-06 15:50:35.046875,76.31
2019-08-06 15:50:35.062500,74.61
2019-08-06 15:50:35.078125,75.65
2019-08-06 15:50:35.093750,74.12
2019-08-06 15:50:35.109375,64.41
2019-08-06 15:50:35.125000,42.97
2019-08-06 15:50:35.140625,10.5
2019-08-06 15:50:35.156250,-27.58
2019-08-06 15:50:35.171875,-62.48
2019-08-06 15:50:35.187500,-86.93
2019-08-06 15:50:35.203125,-97.25
2019-08-06 15:50:35.218750,-94.23
2019-08-06 15:50:35.234375,-82.08
2019-08-06 15:50:35.250000,-65.48
2019-08-06 15:50:35.265625,-47.55
2019-08-06 15:50:35.281250,-29.31
2019-08-06 15:50:35.296875,-10.58
2019-08-06 15:50:35.312500,9.18
2019-08-06 15:50:35.328125,28.6
2019-08-06 15:50:35.343750,46.09
2019-08-06 15:50:35.359375,59.43
2019-08-06 15:50:35.375000,67.33
2019-08-06 15:50:35.390625,69.75
2019-08-06 15:50:35.406250,67.29
2019-08-06 15:50:35.421875,60.83
2019-08-06 15:50:35.437500,51.04
2019-08-06 15:50:35.453125,38.75
2019-08-06 15:50:35.468750,24.34
2019-08-06 15:50:35.484375,8.29
2019-08-06 15:50:35.500000,-8.88
2019-08-06 15:50:35.515625,-26.6
2019-08-06 15:50:35.531250,-44.27
2019-08-06 15:50:35.546875,-61.13
2019-08-06 15:50:35.562500,-76.8
2019-08-06 15:50:35.578125,-91.57
2019-08-06 15:50:35.593750,-106.05
2019-08-06 15:50:35.609375,-121.14
2019-08-06 15:50:35.625000,-136.77
2019-08-06 15:50:35.640625,-150.96
2019-08-06 15:50:35.656250,-159.62
2019-08-06 15:50:35.671875,-157.5
2019-08-06 15:50:35.687500,-140.92
2019-08-06 15:50:35.703125,-110.1
2019-08-06 15:50:35.718750,-69.92
2019-08-06 15:50:35.734375,-28.2
2019-08-06 15:50:35.750000,6.92
2019-08-06 15:50:35.765625,30.2
2019-08-06 15:50:35.781250,40.71
2019-08-06 15:50:35.796875,41.38
2019-08-06 15:50:35.812500,37.03
2019-08-06 15:50:35.828125,31.8
2019-08-06 15:50:35.843750,27.76
2019-08-06 15:50:35.859375,25.22
2019-08-06 15:50:35.875000,23.79
2019-08-06 15:50:35.890625,23.08
2019-08-06 15:50:35.906250,23.24
2019-08-06 15:50:35.921875,24.26
2019-08-06 15:50:35.937500,25.82
2019-08-06 15:50:35.953125,27.31
2019-08-06 15:50:35.968750,28.07
2019-08-06 15:50:35.984375,27.54
2019-08-06 15:50:36.000000,25.68
2019-08-06 15:50:36.015625,22.41
2019-08-06 15:50:36.031250,17.29
2019-08-06 15:50:36.046875,9.58
2019-08-06 15:50:36.062500,-1.8
2019-08-06 15:50:36.078125,-17.71
2019-08-06 15:50:36.093750,-38.18
2019-08-06 15:50:36.109375,-62.14
2019-08-06 15:50:36.125000,-87.72
2019-08-06 15:50:36.140625,-111.66
2019-08-06 15:50:36.156250,-130.13
2019-08-06 15:50:36.171875,-139.28
2019-08-06 15:50:36.187500,-136.24
2019-08-06 15:50:36.203125,-120.52
2019-08-06 15:50:36.218750,-94.93
2019-08-06 15:50:36.234375,-65.36
2019-08-06 15:50:36.250000,-38.49
2019-08-06 15:50:36.265625,-20.61
2019-08-06 15:50:36.281250,-13.4
2019-08-06 15:50:36.296875,-13.72
2019-08-06 15:50:36.312500,-15.54
2019-08-06 15:50:36.328125,-13.27
2019-08-06 15:50:36.343750,-4.57
2019-08-06 15:50:36.359375,8.98
2019-08-06 15:50:36.375000,23.34
2019-08-06 15:50:36.390625,34.68
2019-08-06 15:50:36.406250,41.44
2019-08-06 15:50:36.421875,44.62
2019-08-06 15:50:36.437500,46.27
2019-08-06 15:50:36.453125,47.79
2019-08-06 15:50:36.468750,49.17
2019-08-06 15:50:36.484375,49.33
2019-08-06 15:50:36.500000,47.33
2019-08-06 15:50:36.515625,43.31
2019-08-06 15:50:36.531250,38.17
2019-08-06 15:50:36.546875,33.59
2019-08-06 15:50:36.562500,31.23
2019-08-06 15:50:36.578125,31.55
2019-08-06 15:50:36.593750,33.78
2019-08-06 15:50:36.609375,36.54
2019-08-06 15:50:36.625000,38.59
2019-08-06 15:50:36.640625,39.47
2019-08-06 15:50:36.656250,39.78
2019-08-06 15:50:36.671875,40.66
2019-08-06 15:50:36.687500,43.62
2019-08-06 15:50:36.703125,49.63
2019-08-06 15:50:36.718750,58.58
2019-08-06 15:50:36.734375,69.09
2019-08-06 15:50:36.750000,79.09
2019-08-06 15:50:36.765625,86.66
2019-08-06 15:50:36.781250,90.54
2019-08-06 15:50:36.796875,90.82
2019-08-06 15:50:36.812500,88.23
2019-08-06 15:50:36.828125,84.07
2019-08-06 15:50:36.843750,79.7
2019-08-06 15:50:36.859375,75.84
2019-08-06 15:50:36.875000,72.47
2019-08-06 15:50:36.890625,68.77
2019-08-06 15:50:36.906250,63.6
2019-08-06 15:50:36.921875,56.02
2019-08-06 15:50:36.937500,45.68
2019-08-06 15:50:36.953125,32.53
2019-08-06 15:50:36.968750,16.87
2019-08-06 15:50:36.984375,-1.1
2019-08-06 15:50:37.000000,-21.61
2019-08-06 15:50:37.015625,-45.06
2019-08-06 15:50:37.031250,-71.86
2019-08-06 15:50:37.046875,-101.79
2019-08-06 15:50:37.062500,-133.34
2019-08-06 15:50:37.078125,-163.37
2019-08-06 15:50:37.093750,-188.04
2019-08-06 15:50:37.109375,-203.26
2019-08-06 15:50:37.125000,-205.97
2019-08-06 15:50:37.140625,-194.99
2019-08-06 15:50:37.156250,-171.21
2019-08-06 15:50:37.171875,-137.56
2019-08-06 15:50:37.187500,-98.2
2019-08-06 15:50:37.203125,-57.87
2019-08-06 15:50:37.218750,-21.28
2019-08-06 15:50:37.234375,7.52
2019-08-06 15:50:37.250000,25.91
2019-08-06 15:50:37.265625,33.8
2019-08-06 15:50:37.281250,33.87
2019-08-06 15:50:37.296875,31.01
2019-08-06 15:50:37.312500,30.47
2019-08-06 15:50:37.328125,35.43
2019-08-06 15:50:37.343750,45.32
2019-08-06 15:50:37.359375,56.3
2019-08-06 15:50:37.375000,63.41
2019-08-06 15:50:37.390625,63.39
2019-08-06 15:50:37.406250,56.14
2019-08-06 15:50:37.421875,44.41
2019-08-06 15:50:37.437500,32.07
2019-08-06 15:50:37.453125,21.97
2019-08-06 15:50:37.468750,14.83
2019-08-06 15:50:37.484375,9.63
2019-08-06 15:50:37.500000,5.02
2019-08-06 15:50:37.515625,0.41
2019-08-06 15:50:37.531250,-3.54
2019-08-06 15:50:37.546875,-5.77
2019-08-06 15:50:37.562500,-5.74
2019-08-06 15:50:37.578125,-3.91
2019-08-06 15:50:37.593750,-1.71
2019-08-06 15:50:37.609375,-0.81
2019-08-06 15:50:37.625000,-2.28
2019-08-06 15:50:37.640625,-6.16
2019-08-06 15:50:37.656250,-11.68
2019-08-06 15:50:37.671875,-17.68
2019-08-06 15:50:37.687500,-23.43
2019-08-06 15:50:37.703125,-28.71
2019-08-06 15:50:37.718750,-34.27
2019-08-06 15:50:37.734375,-41.18
2019-08-06 15:50:37.750000,-50.22
2019-08-06 15:50:37.765625,-61.32
2019-08-06 15:50:37.781250,-73.35
2019-08-06 15:50:37.796875,-84.72
2019-08-06 15:50:37.812500,-93.16
2019-08-06 15:50:37.828125,-97.12
2019-08-06 15:50:37.843750,-95.44
2019-08-06 15:50:37.859375,-87.99
2019-08-06 15:50:37.875000,-75.52
2019-08-06 15:50:37.890625,-59.25
2019-08-06 15:50:37.906250,-40.51
2019-08-06 15:50:37.921875,-20.44
2019-08-06 15:50:37.937500,-0.02
2019-08-06 15:50:37.953125,19.97
2019-08-06 15:50:37.968750,38.65
2019-08-06 15:50:37.984375,55.1
2019-08-06 15:50:38.000000,68.36
2019-08-06 15:50:38.015625,77.55
2019-08-06 15:50:38.031250,82.1
2019-08-06 15:50:38.046875,81.82
2019-08-06 15:50:38.062500,77.06
2019-08-06 15:50:38.078125,68.53
2019-08-06 15:50:38.093750,57.25
2019-08-06 15:50:38.109375,44.17
2019-08-06 15:50:38.125000,30.27
2019-08-06 15:50:38.140625,16.34
2019-08-06 15:50:38.156250,3.16
2019-08-06 15:50:38.171875,-8.45
2019-08-06 15:50:38.187500,-17.6
2019-08-06 15:50:38.203125,-23.39
2019-08-06 15:50:38.218750,-25.02
2019-08-06 15:50:38.234375,-22.15
2019-08-06 15:50:38.250000,-15.07
2019-08-06 15:50:38.265625,-4.78
2019-08-06 15:50:38.281250,7.19
2019-08-06 15:50:38.296875,18.96
2019-08-06 15:50:38.312500,28.78
2019-08-06 15:50:38.328125,35.56
2019-08-06 15:50:38.343750,38.9
2019-08-06 15:50:38.359375,39.33
2019-08-06 15:50:38.375000,38.32
2019-08-06 15:50:38.390625,37.96
2019-08-06 15:50:38.406250,40.3
2019-08-06 15:50:38.421875,46.46
2019-08-06 15:50:38.437500,56.13
2019-08-06 15:50:38.453125,66.52
2019-08-06 15:50:38.468750,74.86
2019-08-06 15:50:38.484375,78.41
2019-08-06 15:50:38.500000,75.33
2019-08-06 15:50:38.515625,65.27
2019-08-06 15:50:38.531250,49.36
2019-08-06 15:50:38.546875,29.93
2019-08-06 15:50:38.562500,9.94
2019-08-06 15:50:38.578125,-7.64
2019-08-06 15:50:38.593750,-20.33
2019-08-06 15:50:38.609375,-26.76
2019-08-06 15:50:38.625000,-27.21
2019-08-06 15:50:38.640625,-23.42
2019-08-06 15:50:38.656250,-17.95
2019-08-06 15:50:38.671875,-13.16
2019-08-06 15:50:38.687500,-10.35
2019-08-06 15:50:38.703125,-9.53
2019-08-06 15:50:38.718750,-9.92
2019-08-06 15:50:38.734375,-10.61
2019-08-06 15:50:38.750000,-11.13
2019-08-06 15:50:38.765625,-11.56
2019-08-06 15:50:38.781250,-12.1
2019-08-06 15:50:38.796875,-12.66
2019-08-06 15:50:38.812500,-12.91
2019-08-06 15:50:38.828125,-12.46
2019-08-06 15:50:38.843750,-11.19
2019-08-06 15:50:38.859375,-9.4
2019-08-06 15:50:38.875000,-7.69
2019-08-06 15:50:38.890625,-6.59
2019-08-06 15:50:38.906250,-6.3
2019-08-06 15:50:38.921875,-6.71
2019-08-06 15:50:38.937500,-7.37
2019-08-06 15:50:38.953125,-7.82
2019-08-06 15:50:38.968750,-7.71
2019-08-06 15:50:38.984375,-6.95
2019-08-06 15:50:39.000000,-5.68
2019-08-06 15:50:39.015625,-4.24
2019-08-06 15:50:39.031250,-3.1
2019-08-06 15:50:39.046875,-2.46
2019-08-06 15:50:39.062500,-2.37
2019-08-06 15:50:39.078125,-2.62
2019-08-06 15:50:39.093750,-2.87
2019-08-06 15:50:39.109375,-2.46
2019-08-06 15:50:39.125000,-0.58
2019-08-06 15:50:39.140625,3.79
2019-08-06 15:50:39.156250,11.58
2019-08-06 15:50:39.171875,23.07
2019-08-06 15:50:39.187500,38.09
2019-08-06 15:50:39.203125,55.84
2019-08-06 15:50:39.218750,74.77
2019-08-06 15:50:39.234375,92.92
2019-08-06 15:50:39.250000,108.33
2019-08-06 15:50:39.265625,118.59
2019-08-06 15:50:39.281250,121.69
2019-08-06 15:50:39.296875,116.12
2019-08-06 15:50:39.312500,100.56
2019-08-06 15:50:39.328125,74.24
2019-08-06 15:50:39.343750,37.5
2019-08-06 15:50:39.359375,-7.94
2019-08-06 15:50:39.375000,-58.46
2019-08-06 15:50:39.390625,-108.67
2019-08-06 15:50:39.406250,-152.34
2019-08-06 15:50:39.421875,-183.12
2019-08-06 15:50:39.437500,-196.32
2019-08-06 15:50:39.453125,-190.03
2019-08-06 15:50:39.468750,-165.58
2019-08-06 15:50:39.484375,-127.13
2019-08-06 15:50:39.500000,-80.72
2019-08-06 15:50:39.515625,-32.84
2019-08-06 15:50:39.531250,10.2
2019-08-06 15:50:39.546875,42.96
2019-08-06 15:50:39.562500,61.79
2019-08-06 15:50:39.578125,65.82
2019-08-06 15:50:39.593750,57.42
2019-08-06 15:50:39.609375,41.76
2019-08-06 15:50:39.625000,26.35
2019-08-06 15:50:39.640625,17.02
2019-08-06 15:50:39.656250,16.3
2019-08-06 15:50:39.671875,22.27
2019-08-06 15:50:39.687500,29.97
2019-08-06 15:50:39.703125,34.03
2019-08-06 15:50:39.718750,31.21
2019-08-06 15:50:39.734375,20.99
2019-08-06 15:50:39.750000,5.21
2019-08-06 15:50:39.765625,-13.77
2019-08-06 15:50:39.781250,-34.82
2019-08-06 15:50:39.796875,-57.39
2019-08-06 15:50:39.812500,-80.89
2019-08-06 15:50:39.828125,-103.84
2019-08-06 15:50:39.843750,-124.45
2019-08-06 15:50:39.859375,-139.74
2019-08-06 15:50:39.875000,-147.82
2019-08-06 15:50:39.890625,-147.64
2019-08-06 15:50:39.906250,-139.47
2019-08-06 15:50:39.921875,-124.02
2019-08-06 15:50:39.937500,-101.96
2019-08-06 15:50:39.953125,-73.82
2019-08-06 15:50:39.968750,-39.79
2019-08-06 15:50:39.984375,-1.51
2019-08-06 15:50:40.000000,39.49
2019-08-06 15:50:40.015625,80.93
2019-08-06 15:50:40.031250,119.33
2019-08-06 15:50:40.046875,149.74
2019-08-06 15:50:40.062500,166.57
2019-08-06 15:50:40.078125,165.67
2019-08-06 15:50:40.093750,146.37
2019-08-06 15:50:40.109375,112.61
2019-08-06 15:50:40.125000,72.44
2019-08-06 15:50:40.140625,35.41
2019-08-06 15:50:40.156250,8.48
2019-08-06 15:50:40.171875,-5.76
2019-08-06 15:50:40.187500,-9.38
2019-08-06 15:50:40.203125,-6.98
2019-08-06 15:50:40.218750,-2.66
2019-08-06 15:50:40.234375,1.74
2019-08-06 15:50:40.250000,6.43
2019-08-06 15:50:40.265625,12.78
2019-08-06 15:50:40.281250,21.84
2019-08-06 15:50:40.296875,33.01
2019-08-06 15:50:40.312500,45.29
2019-08-06 15:50:40.328125,57.91
2019-08-06 15:50:40.343750,71.04
2019-08-06 15:50:40.359375,85.36
2019-08-06 15:50:40.375000,101.36
2019-08-06 15:50:40.390625,117.9
2019-08-06 15:50:40.406250,132.24
2019-08-06 15:50:40.421875,140.8
2019-08-06 15:50:40.437500,139.99
2019-08-06 15:50:40.453125,127.93
2019-08-06 15:50:40.468750,104.96
2019-08-06 15:50:40.484375,73.64
2019-08-06 15:50:40.500000,37.44
2019-08-06 15:50:40.515625,0.87
2019-08-06 15:50:40.531250,-33.04
2019-08-06 15:50:40.546875,-62.75
2019-08-06 15:50:40.562500,-87.81
2019-08-06 15:50:40.578125,-108.9
2019-08-06 15:50:40.593750,-126.96
2019-08-06 15:50:40.609375,-143.1
2019-08-06 15:50:40.625000,-158.3
2019-08-06 15:50:40.640625,-171.67
2019-08-06 15:50:40.656250,-181.19
2019-08-06 15:50:40.671875,-183.96
2019-08-06 15:50:40.687500,-177.4
2019-08-06 15:50:40.703125,-161.07
2019-08-06 15:50:40.718750,-138.33
2019-08-06 15:50:40.734375,-115.5
2019-08-06 15:50:40.750000,-99.73
2019-08-06 15:50:40.765625,-95.87
2019-08-06 15:50:40.781250,-104.19
2019-08-06 15:50:40.796875,-120.31
2019-08-06 15:50:40.812500,-137.26
2019-08-06 15:50:40.828125,-148.25
2019-08-06 15:50:40.843750,-149.01
2019-08-06 15:50:40.859375,-138.61
2019-08-06 15:50:40.875000,-118.44
2019-08-06 15:50:40.890625,-90.9
2019-08-06 15:50:40.906250,-58.35
2019-08-06 15:50:40.921875,-22.4
2019-08-06 15:50:40.937500,14.31
2019-08-06 15:50:40.953125,49.35
2019-08-06 15:50:40.968750,80.6
2019-08-06 15:50:40.984375,106.51
2019-08-06 15:50:41.000000,126.01
2019-08-06 15:50:41.015625,138.92
2019-08-06 15:50:41.031250,145.8
2019-08-06 15:50:41.046875,147.63
2019-08-06 15:50:41.062500,146.71
2019-08-06 15:50:41.078125,144.53
2019-08-06 15:50:41.093750,142.83
2019-08-06 15:50:41.109375,143.19
2019-08-06 15:50:41.125000,146.47
2019-08-06 15:50:41.140625,152.35
2019-08-06 15:50:41.156250,159.94
2019-08-06 15:50:41.171875,168.35
2019-08-06 15:50:41.187500,175.39
2019-08-06 15:50:41.203125,178.74
2019-08-06 15:50:41.218750,175.27
2019-08-06 15:50:41.234375,162.15
2019-08-06 15:50:41.250000,138.01
2019-08-06 15:50:41.265625,104.54
2019-08-06 15:50:41.281250,66.74
2019-08-06 15:50:41.296875,31.52
2019-08-06 15:50:41.312500,4.94
2019-08-06 15:50:41.328125,-10.39
2019-08-06 15:50:41.343750,-16.1
2019-08-06 15:50:41.359375,-17.49
2019-08-06 15:50:41.375000,-20.9
2019-08-06 15:50:41.390625,-31.18
2019-08-06 15:50:41.406250,-49.78
2019-08-06 15:50:41.421875,-74.48
2019-08-06 15:50:41.437500,-100.14
2019-08-06 15:50:41.453125,-120.79
2019-08-06 15:50:41.468750,-132.07
2019-08-06 15:50:41.484375,-131.88
2019-08-06 15:50:41.500000,-121.11
2019-08-06 15:50:41.515625,-102.88
2019-08-06 15:50:41.531250,-81.44
2019-08-06 15:50:41.546875,-60.62
2019-08-06 15:50:41.562500,-42.34
2019-08-06 15:50:41.578125,-26.8
2019-08-06 15:50:41.593750,-13.44
2019-08-06 15:50:41.609375,-1.92
2019-08-06 15:50:41.625000,8.07
2019-08-06 15:50:41.640625,16.73
2019-08-06 15:50:41.656250,25.15
2019-08-06 15:50:41.671875,35.1
2019-08-06 15:50:41.687500,48.42
2019-08-06 15:50:41.703125,66.22
2019-08-06 15:50:41.718750,87.7
2019-08-06 15:50:41.734375,110.5
2019-08-06 15:50:41.750000,130.68
2019-08-06 15:50:41.765625,144.47
2019-08-06 15:50:41.781250,148.96
2019-08-06 15:50:41.796875,143.02
2019-08-06 15:50:41.812500,127.43
2019-08-06 15:50:41.828125,104.49
2019-08-06 15:50:41.843750,77.32
2019-08-06 15:50:41.859375,48.6
2019-08-06 15:50:41.875000,20.86
2019-08-06 15:50:41.890625,-4.84
2019-08-06 15:50:41.906250,-28.21
2019-08-06 15:50:41.921875,-49.39
2019-08-06 15:50:41.937500,-68.25
2019-08-06 15:50:41.953125,-84.22
2019-08-06 15:50:41.968750,-96.43
2019-08-06 15:50:41.984375,-104.08
2019-08-06 15:50:42.000000,-106.57
2019-08-06 15:50:42.015625,-104.75
2019-08-06 15:50:42.031250,-100.37
2019-08-06 15:50:42.046875,-95.54
2019-08-06 15:50:42.062500,-91.97
2019-08-06 15:50:42.078125,-90.26
2019-08-06 15:50:42.093750,-89.91
2019-08-06 15:50:42.109375,-90.46
2019-08-06 15:50:42.125000,-91.5
2019-08-06 15:50:42.140625,-92.99
2019-08-06 15:50:42.156250,-95.1
2019-08-06 15:50:42.171875,-96.87
2019-08-06 15:50:42.187500,-95.46
2019-08-06 15:50:42.203125,-87.44
2019-08-06 15:50:42.218750,-70.61
2019-08-06 15:50:42.234375,-45.8
2019-08-06 15:50:42.250000,-18.14
2019-08-06 15:50:42.265625,5.61
2019-08-06 15:50:42.281250,20.21
2019-08-06 15:50:42.296875,23.91
2019-08-06 15:50:42.312500,19.24
2019-08-06 15:50:42.328125,10.62
2019-08-06 15:50:42.343750,1.2
2019-08-06 15:50:42.359375,-9.16
2019-08-06 15:50:42.375000,-23.23
2019-08-06 15:50:42.390625,-43.82
2019-08-06 15:50:42.406250,-70.64
2019-08-06 15:50:42.421875,-99.35
2019-08-06 15:50:42.437500,-123.81
2019-08-06 15:50:42.453125,-139.29
2019-08-06 15:50:42.468750,-145.48
2019-08-06 15:50:42.484375,-146.16
2019-08-06 15:50:42.500000,-146.08
2019-08-06 15:50:42.515625,-147.57
2019-08-06 15:50:42.531250,-147.54
2019-08-06 15:50:42.546875,-139.59
2019-08-06 15:50:42.562500,-117.92
2019-08-06 15:50:42.578125,-81.4
2019-08-06 15:50:42.593750,-34.54
2019-08-06 15:50:42.609375,13.96
2019-08-06 15:50:42.625000,55.38
2019-08-06 15:50:42.640625,84.66
2019-08-06 15:50:42.656250,101.94
2019-08-06 15:50:42.671875,112.33
2019-08-06 15:50:42.687500,121.56
2019-08-06 15:50:42.703125,132.64
2019-08-06 15:50:42.718750,145.14
2019-08-06 15:50:42.734375,156.82
2019-08-06 15:50:42.750000,165.21
2019-08-06 15:50:42.765625,169.11
2019-08-06 15:50:42.781250,170.32
2019-08-06 15:50:42.796875,170.07
2019-08-06 15:50:42.812500,170.37
2019-08-06 15:50:42.828125,172.72
2019-08-06 15:50:42.843750,177.16
2019-08-06 15:50:42.859375,182.71
2019-08-06 15:50:42.875000,187.67
2019-08-06 15:50:42.890625,190.33
2019-08-06 15:50:42.906250,189.36
2019-08-06 15:50:42.921875,183.6
2019-08-06 15:50:42.937500,171.26
2019-08-06 15:50:42.953125,150.5
2019-08-06 15:50:42.968750,120.06
2019-08-06 15:50:42.984375,80.4
2019-08-06 15:50:43.000000,35.03
2019-08-06 15:50:43.015625,-9.98
2019-08-06 15:50:43.031250,-47.44
2019-08-06 15:50:43.046875,-70.68
2019-08-06 15:50:43.062500,-76.74
2019-08-06 15:50:43.078125,-67.95
2019-08-06 15:50:43.093750,-50.41
2019-08-06 15:50:43.109375,-31.45
2019-08-06 15:50:43.125000,-16.53
2019-08-06 15:50:43.140625,-7.52
2019-08-06 15:50:43.156250,-3.56
2019-08-06 15:50:43.171875,-3.09
2019-08-06 15:50:43.187500,-4.61
2019-08-06 15:50:43.203125,-8.61
2019-08-06 15:50:43.218750,-16.83
2019-08-06 15:50:43.234375,-30.58
2019-08-06 15:50:43.250000,-49.3
2019-08-06 15:50:43.265625,-70.1
2019-08-06 15:50:43.281250,-88.68
2019-08-06 15:50:43.296875,-100.99
2019-08-06 15:50:43.312500,-105.56
2019-08-06 15:50:43.328125,-102.58
2019-08-06 15:50:43.343750,-94.62
2019-08-06 15:50:43.359375,-84.79
2019-08-06 15:50:43.375000,-75.82
2019-08-06 15:50:43.390625,-69.66
2019-08-06 15:50:43.406250,-67.54
2019-08-06 15:50:43.421875,-70.32
2019-08-06 15:50:43.437500,-76.45
2019-08-06 15:50:43.453125,-86.23
2019-08-06 15:50:43.468750,-97.56
2019-08-06 15:50:43.484375,-105.94
2019-08-06 15:50:43.500000,-105.79
2019-08-06 15:50:43.515625,-92.67
2019-08-06 15:50:43.531250,-66.47
2019-08-06 15:50:43.546875,-31.91
2019-08-06 15:50:43.562500,3.22
2019-08-06 15:50:43.578125,31.2
2019-08-06 15:50:43.593750,47.15
2019-08-06 15:50:43.609375,51.28
2019-08-06 15:50:43.625000,47.27
2019-08-06 15:50:43.640625,39.78
2019-08-06 15:50:43.656250,32.46
2019-08-06 15:50:43.671875,26.55
2019-08-06 15:50:43.687500,21.65
2019-08-06 15:50:43.703125,17.43
2019-08-06 15:50:43.718750,13.9
2019-08-06 15:50:43.734375,11.23
2019-08-06 15:50:43.750000,9.93
2019-08-06 15:50:43.765625,9.91
2019-08-06 15:50:43.781250,10.13
2019-08-06 15:50:43.796875,9.18
2019-08-06 15:50:43.812500,5.44
2019-08-06 15:50:43.828125,-2.09
2019-08-06 15:50:43.843750,-13.63
2019-08-06 15:50:43.859375,-29.13
2019-08-06 15:50:43.875000,-48.23
2019-08-06 15:50:43.890625,-69.93
2019-08-06 15:50:43.906250,-92.74
2019-08-06 15:50:43.921875,-115.41
2019-08-06 15:50:43.937500,-135.35
2019-08-06 15:50:43.953125,-149.8
2019-08-06 15:50:43.968750,-156.28
2019-08-06 15:50:43.984375,-153.13
2019-08-06 15:50:44.000000,-139.79
2019-08-06 15:50:44.015625,-116.7
2019-08-06 15:50:44.031250,-85.17
2019-08-06 15:50:44.046875,-47.09
2019-08-06 15:50:44.062500,-4.34
2019-08-06 15:50:44.078125,39.42
2019-08-06 15:50:44.093750,81.03
2019-08-06 15:50:44.109375,118.28
2019-08-06 15:50:44.125000,150.1
2019-08-06 15:50:44.140625,176.17
2019-08-06 15:50:44.156250,195.93
2019-08-06 15:50:44.171875,207.6
2019-08-06 15:50:44.187500,208.0
2019-08-06 15:50:44.203125,194.14
2019-08-06 15:50:44.218750,165.31
2019-08-06 15:50:44.234375,124.86
2019-08-06 15:50:44.250000,79.84
2019-08-06 15:50:44.265625,38.9
2019-08-06 15:50:44.281250,8.99
2019-08-06 15:50:44.296875,-7.19
2019-08-06 15:50:44.312500,-11.75
2019-08-06 15:50:44.328125,-9.63
2019-08-06 15:50:44.343750,-5.57
2019-08-06 15:50:44.359375,-2.18
2019-08-06 15:50:44.375000,0.67
2019-08-06 15:50:44.390625,4.3
2019-08-06 15:50:44.406250,9.77
2019-08-06 15:50:44.421875,17.1
2019-08-06 15:50:44.437500,25.55
2019-08-06 15:50:44.453125,34.15
2019-08-06 15:50:44.468750,43.02
2019-08-06 15:50:44.484375,52.86
2019-08-06 15:50:44.500000,64.38
2019-08-06 15:50:44.515625,77.83
2019-08-06 15:50:44.531250,91.89
2019-08-06 15:50:44.546875,103.6
2019-08-06 15:50:44.562500,109.54
2019-08-06 15:50:44.578125,106.92
2019-08-06 15:50:44.593750,94.19
2019-08-06 15:50:44.609375,71.82
2019-08-06 15:50:44.625000,42.19
2019-08-06 15:50:44.640625,8.97
2019-08-06 15:50:44.656250,-23.36
2019-08-06 15:50:44.671875,-51.49
2019-08-06 15:50:44.687500,-73.18
2019-08-06 15:50:44.703125,-87.67
2019-08-06 15:50:44.718750,-95.42
2019-08-06 15:50:44.734375,-97.87
2019-08-06 15:50:44.750000,-96.99
2019-08-06 15:50:44.765625,-94.24
2019-08-06 15:50:44.781250,-90.84
2019-08-06 15:50:44.796875,-86.83
2019-08-06 15:50:44.812500,-82.35
2019-08-06 15:50:44.828125,-77.56
2019-08-06 15:50:44.843750,-72.83
2019-08-06 15:50:44.859375,-68.58
2019-08-06 15:50:44.875000,-65.56
2019-08-06 15:50:44.890625,-64.35
2019-08-06 15:50:44.906250,-65.05
2019-08-06 15:50:44.921875,-67.7
2019-08-06 15:50:44.937500,-71.36
2019-08-06 15:50:44.953125,-75.71
2019-08-06 15:50:44.968750,-80.35
2019-08-06 15:50:44.984375,-84.7
2019-08-06 15:50:45.000000,-88.42
2019-08-06 15:50:45.015625,-91.02
2019-08-06 15:50:45.031250,-92.71
2019-08-06 15:50:45.046875,-94.38
2019-08-06 15:50:45.062500,-97.11
2019-08-06 15:50:45.078125,-100.81
2019-08-06 15:50:45.093750,-102.97
2019-08-06 15:50:45.109375,-101.49
2019-08-06 15:50:45.125000,-93.52
2019-08-06 15:50:45.140625,-77.81
2019-08-06 15:50:45.156250,-55.17
2019-08-06 15:50:45.171875,-28.94
2019-08-06 15:50:45.187500,-4.02
2019-08-06 15:50:45.203125,14.59
2019-08-06 15:50:45.218750,23.59
2019-08-06 15:50:45.234375,22.3
2019-08-06 15:50:45.250000,12.13
2019-08-06 15:50:45.265625,-2.73
2019-08-06 15:50:45.281250,-17.01
2019-08-06 15:50:45.296875,-25.05
2019-08-06 15:50:45.312500,-23.05
2019-08-06 15:50:45.328125,-10.55
2019-08-06 15:50:45.343750,9.36
2019-08-06 15:50:45.359375,31.32
2019-08-06 15:50:45.375000,50.32
2019-08-06 15:50:45.390625,64.31
2019-08-06 15:50:45.406250,74.92
2019-08-06 15:50:45.421875,84.94
2019-08-06 15:50:45.437500,96.93
2019-08-06 15:50:45.453125,111.43
2019-08-06 15:50:45.468750,126.81
2019-08-06 15:50:45.484375,140.65
2019-08-06 15:50:45.500000,153.54
2019-08-06 15:50:45.515625,164.13
2019-08-06 15:50:45.531250,172.39
2019-08-06 15:50:45.546875,177.83
2019-08-06 15:50:45.562500,178.51
2019-08-06 15:50:45.578125,171.7
2019-08-06 15:50:45.593750,154.89
2019-08-06 15:50:45.609375,126.85
2019-08-06 15:50:45.625000,88.52
2019-08-06 15:50:45.640625,43.79
2019-08-06 15:50:45.656250,-2.45
2019-08-06 15:50:45.671875,-44.32
2019-08-06 15:50:45.687500,-76.8
2019-08-06 15:50:45.703125,-97.03
2019-08-06 15:50:45.718750,-103.68
2019-08-06 15:50:45.734375,-97.12
2019-08-06 15:50:45.750000,-78.98
2019-08-06 15:50:45.765625,-51.92
2019-08-06 15:50:45.781250,-18.88
2019-08-06 15:50:45.796875,16.47
2019-08-06 15:50:45.812500,50.43
2019-08-06 15:50:45.828125,78.64
2019-08-06 15:50:45.843750,96.29
2019-08-06 15:50:45.859375,99.72
2019-08-06 15:50:45.875000,86.93
2019-08-06 15:50:45.890625,58.32
2019-08-06 15:50:45.906250,16.47
2019-08-06 15:50:45.921875,-33.38
2019-08-06 15:50:45.937500,-84.72
2019-08-06 15:50:45.953125,-130.73
2019-08-06 15:50:45.968750,-165.81
2019-08-06 15:50:45.984375,-187.09
2019-08-06 15:50:46.000000,-193.22
2019-08-06 15:50:46.015625,-184.5
2019-08-06 15:50:46.031250,-159.13
2019-08-06 15:50:46.046875,-120.57
2019-08-06 15:50:46.062500,-74.29
2019-08-06 15:50:46.078125,-25.83
2019-08-06 15:50:46.093750,20.31
2019-08-06 15:50:46.109375,60.96
2019-08-06 15:50:46.125000,93.14
2019-08-06 15:50:46.140625,115.64
2019-08-06 15:50:46.156250,128.43
2019-08-06 15:50:46.171875,132.43
2019-08-06 15:50:46.187500,129.6
2019-08-06 15:50:46.203125,122.79
2019-08-06 15:50:46.218750,115.01
2019-08-06 15:50:46.234375,108.84
2019-08-06 15:50:46.250000,106.32
2019-08-06 15:50:46.265625,108.15
2019-08-06 15:50:46.281250,114.73
2019-08-06 15:50:46.296875,124.7
2019-08-06 15:50:46.312500,134.54
2019-08-06 15:50:46.328125,139.65
2019-08-06 15:50:46.343750,136.68
2019-08-06 15:50:46.359375,125.24
2019-08-06 15:50:46.375000,108.51
2019-08-06 15:50:46.390625,93.98
2019-08-06 15:50:46.406250,84.7
2019-08-06 15:50:46.421875,82.68
2019-08-06 15:50:46.437500,86.38
2019-08-06 15:50:46.453125,91.41
2019-08-06 15:50:46.468750,92.31
2019-08-06 15:50:46.484375,85.39
2019-08-06 15:50:46.500000,69.89
2019-08-06 15:50:46.515625,46.17
2019-08-06 15:50:46.531250,18.65
2019-08-06 15:50:46.546875,-9.74
2019-08-06 15:50:46.562500,-36.94
2019-08-06 15:50:46.578125,-61.97
2019-08-06 15:50:46.593750,-84.03
2019-08-06 15:50:46.609375,-102.08
2019-08-06 15:50:46.625000,-114.79
2019-08-06 15:50:46.640625,-121.18
2019-08-06 15:50:46.656250,-121.08
2019-08-06 15:50:46.671875,-115.55
2019-08-06 15:50:46.687500,-107.32
2019-08-06 15:50:46.703125,-98.73
2019-08-06 15:50:46.718750,-91.6
2019-08-06 15:50:46.734375,-86.59
2019-08-06 15:50:46.750000,-83.36
2019-08-06 15:50:46.765625,-80.74
2019-08-06 15:50:46.781250,-77.52
2019-08-06 15:50:46.796875,-72.85
2019-08-06 15:50:46.812500,-66.72
2019-08-06 15:50:46.828125,-60.32
2019-08-06 15:50:46.843750,-54.69
2019-08-06 15:50:46.859375,-50.56
2019-08-06 15:50:46.875000,-48.04
2019-08-06 15:50:46.890625,-46.6
2019-08-06 15:50:46.906250,-45.36
2019-08-06 15:50:46.921875,-43.39
2019-08-06 15:50:46.937500,-40.47
2019-08-06 15:50:46.953125,-36.76
2019-08-06 15:50:46.968750,-33.19
2019-08-06 15:50:46.984375,-30.6
2019-08-06 15:50:47.000000,-29.4
2019-08-06 15:50:47.015625,-29.46
2019-08-06 15:50:47.031250,-30.32
2019-08-06 15:50:47.046875,-31.39
2019-08-06 15:50:47.062500,-32.27
2019-08-06 15:50:47.078125,-33.39
2019-08-06 15:50:47.093750,-35.31
2019-08-06 15:50:47.109375,-39.02
2019-08-06 15:50:47.125000,-45.13
2019-08-06 15:50:47.140625,-53.59
2019-08-06 15:50:47.156250,-63.89
2019-08-06 15:50:47.171875,-75.34
2019-08-06 15:50:47.187500,-88.15
2019-08-06 15:50:47.203125,-100.75
2019-08-06 15:50:47.218750,-111.56
2019-08-06 15:50:47.234375,-118.48
2019-08-06 15:50:47.250000,-119.22
2019-08-06 15:50:47.265625,-112.2
2019-08-06 15:50:47.281250,-97.36
2019-08-06 15:50:47.296875,-76.42
2019-08-06 15:50:47.312500,-52.39
2019-08-06 15:50:47.328125,-28.17
2019-08-06 15:50:47.343750,-5.55
2019-08-06 15:50:47.359375,14.8
2019-08-06 15:50:47.375000,33.01
2019-08-06 15:50:47.390625,49.52
2019-08-06 15:50:47.406250,64.25
2019-08-06 15:50:47.421875,76.6
2019-08-06 15:50:47.437500,85.94
2019-08-06 15:50:47.453125,91.64
2019-08-06 15:50:47.468750,93.6
2019-08-06 15:50:47.484375,92.23
2019-08-06 15:50:47.500000,87.94
2019-08-06 15:50:47.515625,81.25
2019-08-06 15:50:47.531250,73.0
2019-08-06 15:50:47.546875,63.98
2019-08-06 15:50:47.562500,54.65
2019-08-06 15:50:47.578125,44.82
2019-08-06 15:50:47.593750,34.07
2019-08-06 15:50:47.609375,22.46
2019-08-06 15:50:47.625000,10.93
2019-08-06 15:50:47.640625,1.0
2019-08-06 15:50:47.656250,-6.63
2019-08-06 15:50:47.671875,-12.55
2019-08-06 15:50:47.687500,-18.47
2019-08-06 15:50:47.703125,-25.87
2019-08-06 15:50:47.718750,-34.47
2019-08-06 15:50:47.734375,-41.81
2019-08-06 15:50:47.750000,-44.68
2019-08-06 15:50:47.765625,-41.56
2019-08-06 15:50:47.781250,-34.11
2019-08-06 15:50:47.796875,-27.27
2019-08-06 15:50:47.812500,-26.47
2019-08-06 15:50:47.828125,-34.24
2019-08-06 15:50:47.843750,-48.16
2019-08-06 15:50:47.859375,-61.89
2019-08-06 15:50:47.875000,-68.34
2019-08-06 15:50:47.890625,-63.17
2019-08-06 15:50:47.906250,-46.76
2019-08-06 15:50:47.921875,-22.96
2019-08-06 15:50:47.937500,3.39
2019-08-06 15:50:47.953125,29.13
2019-08-06 15:50:47.968750,53.84
2019-08-06 15:50:47.984375,79.32
2019-08-06 15:50:48.000000,107.42
2019-08-06 15:50:48.015625,137.81
2019-08-06 15:50:48.031250,167.9
2019-08-06 15:50:48.046875,189.83
2019-08-06 15:50:48.062500,198.46
2019-08-06 15:50:48.078125,191.04
2019-08-06 15:50:48.093750,167.45
2019-08-06 15:50:48.109375,130.28
2019-08-06 15:50:48.125000,84.71
2019-08-06 15:50:48.140625,37.76
2019-08-06 15:50:48.156250,-3.34
2019-08-06 15:50:48.171875,-32.93
2019-08-06 15:50:48.187500,-48.62
2019-08-06 15:50:48.203125,-51.28
2019-08-06 15:50:48.218750,-45.28
2019-08-06 15:50:48.234375,-36.1
2019-08-06 15:50:48.250000,-28.0
2019-08-06 15:50:48.265625,-22.67
2019-08-06 15:50:48.281250,-19.5
2019-08-06 15:50:48.296875,-17.32
2019-08-06 15:50:48.312500,-15.7
2019-08-06 15:50:48.328125,-15.46
2019-08-06 15:50:48.343750,-17.13
2019-08-06 15:50:48.359375,-20.9
2019-08-06 15:50:48.375000,-25.72
2019-08-06 15:50:48.390625,-29.68
2019-08-06 15:50:48.406250,-30.96
2019-08-06 15:50:48.421875,-28.94
2019-08-06 15:50:48.437500,-24.52
2019-08-06 15:50:48.453125,-19.61
2019-08-06 15:50:48.468750,-16.34
2019-08-06 15:50:48.484375,-15.69
2019-08-06 15:50:48.500000,-17.53
2019-08-06 15:50:48.515625,-20.73
2019-08-06 15:50:48.531250,-23.72
2019-08-06 15:50:48.546875,-25.27
2019-08-06 15:50:48.562500,-24.95
2019-08-06 15:50:48.578125,-23.32
2019-08-06 15:50:48.593750,-21.51
2019-08-06 15:50:48.609375,-20.76
2019-08-06 15:50:48.625000,-21.59
2019-08-06 15:50:48.640625,-23.97
2019-08-06 15:50:48.656250,-27.32
2019-08-06 15:50:48.671875,-30.64
2019-08-06 15:50:48.687500,-33.29
2019-08-06 15:50:48.703125,-35.0
2019-08-06 15:50:48.718750,-36.1
2019-08-06 15:50:48.734375,-37.31
2019-08-06 15:50:48.750000,-39.53
2019-08-06 15:50:48.765625,-43.48
2019-08-06 15:50:48.781250,-49.77
2019-08-06 15:50:48.796875,-58.85
2019-08-06 15:50:48.812500,-70.77
2019-08-06 15:50:48.828125,-85.55
2019-08-06 15:50:48.843750,-102.92
2019-08-06 15:50:48.859375,-122.23
2019-08-06 15:50:48.875000,-142.34
2019-08-06 15:50:48.890625,-162.2
2019-08-06 15:50:48.906250,-179.31
2019-08-06 15:50:48.921875,-191.0
2019-08-06 15:50:48.937500,-194.86
2019-08-06 15:50:48.953125,-189.1
2019-08-06 15:50:48.968750,-172.89
2019-08-06 15:50:48.984375,-146.5
2019-08-06 15:50:49.000000,-111.43
2019-08-06 15:50:49.015625,-70.11
2019-08-06 15:50:49.031250,-25.41
2019-08-06 15:50:49.046875,18.86
2019-08-06 15:50:49.062500,59.43
2019-08-06 15:50:49.078125,93.85
2019-08-06 15:50:49.093750,120.57
2019-08-06 15:50:49.109375,139.08
2019-08-06 15:50:49.125000,149.81
2019-08-06 15:50:49.140625,153.83
2019-08-06 15:50:49.156250,152.42
2019-08-06 15:50:49.171875,147.17
2019-08-06 15:50:49.187500,139.57
2019-08-06 15:50:49.203125,130.86
2019-08-06 15:50:49.218750,122.47
2019-08-06 15:50:49.234375,114.47
2019-08-06 15:50:49.250000,106.95
2019-08-06 15:50:49.265625,99.94
2019-08-06 15:50:49.281250,93.43
2019-08-06 15:50:49.296875,87.15
2019-08-06 15:50:49.312500,81.03
2019-08-06 15:50:49.328125,75.1
2019-08-06 15:50:49.343750,69.42
2019-08-06 15:50:49.359375,64.08
2019-08-06 15:50:49.375000,59.02
2019-08-06 15:50:49.390625,54.27
2019-08-06 15:50:49.406250,49.8
2019-08-06 15:50:49.421875,45.53
2019-08-06 15:50:49.437500,41.37
2019-08-06 15:50:49.453125,37.33
2019-08-06 15:50:49.468750,33.42
2019-08-06 15:50:49.484375,29.74
2019-08-06 15:50:49.500000,26.36
2019-08-06 15:50:49.515625,23.23
2019-08-06 15:50:49.531250,20.4
2019-08-06 15:50:49.546875,17.83
2019-08-06 15:50:49.562500,15.44
2019-08-06 15:50:49.578125,13.14
2019-08-06 15:50:49.593750,10.96
2019-08-06 15:50:49.609375,8.91
2019-08-06 15:50:49.625000,7.09
2019-08-06 15:50:49.640625,5.57
2019-08-06 15:50:49.656250,4.34
2019-08-06 15:50:49.671875,3.35
2019-08-06 15:50:49.687500,2.5
2019-08-06 15:50:49.703125,1.64
2019-08-06 15:50:49.718750,0.65
2019-08-06 15:50:49.734375,-0.42
2019-08-06 15:50:49.750000,-1.42
2019-08-06 15:50:49.765625,-2.12
2019-08-06 15:50:49.781250,-2.3
2019-08-06 15:50:49.796875,-1.91
2019-08-06 15:50:49.812500,-1.08
2019-08-06 15:50:49.828125,-0.11
2019-08-06 15:50:49.843750,0.68
2019-08-06 15:50:49.859375,0.97
2019-08-06 15:50:49.875000,0.87
2019-08-06 15:50:49.890625,0.69
2019-08-06 15:50:49.906250,0.82
2019-08-06 15:50:49.921875,1.68
2019-08-06 15:50:49.937500,3.47
2019-08-06 15:50:49.953125,5.93
2019-08-06 15:50:49.968750,8.61
2019-08-06 15:50:49.984375,11.04
2019-08-06 15:50:50.000000,12.99
2019-08-06 15:50:50.015625,15.02
2019-08-06 15:50:50.031250,18.05
2019-08-06 15:50:50.046875,23.19
2019-08-06 15:50:50.062500,31.31
2019-08-06 15:50:50.078125,42.74
2019-08-06 15:50:50.093750,56.76
2019-08-06 15:50:50.109375,71.89
2019-08-06 15:50:50.125000,86.76
2019-08-06 15:50:50.140625,99.42
2019-08-06 15:50:50.156250,108.8
2019-08-06 15:50:50.171875,114.4
2019-08-06 15:50:50.187500,116.22
2019-08-06 15:50:50.203125,114.5
2019-08-06 15:50:50.218750,109.75
2019-08-06 15:50:50.234375,102.69
2019-08-06 15:50:50.250000,94.33
2019-08-06 15:50:50.265625,85.31
2019-08-06 15:50:50.281250,75.18
2019-08-06 15:50:50.296875,62.47
2019-08-06 15:50:50.312500,44.91
2019-08-06 15:50:50.328125,21.05
2019-08-06 15:50:50.343750,-8.47
2019-08-06 15:50:50.359375,-40.3
2019-08-06 15:50:50.375000,-69.5
2019-08-06 15:50:50.390625,-91.43
2019-08-06 15:50:50.406250,-103.68
2019-08-06 15:50:50.421875,-106.87
2019-08-06 15:50:50.437500,-103.41
2019-08-06 15:50:50.453125,-96.46
2019-08-06 15:50:50.468750,-88.48
2019-08-06 15:50:50.484375,-80.62
2019-08-06 15:50:50.500000,-73.31
2019-08-06 15:50:50.515625,-67.22
2019-08-06 15:50:50.531250,-63.82
2019-08-06 15:50:50.546875,-64.75
2019-08-06 15:50:50.562500,-70.95
2019-08-06 15:50:50.578125,-81.37
2019-08-06 15:50:50.593750,-93.75
2019-08-06 15:50:50.609375,-105.21
2019-08-06 15:50:50.625000,-112.89
2019-08-06 15:50:50.640625,-114.97
2019-08-06 15:50:50.656250,-110.86
2019-08-06 15:50:50.671875,-101.43
2019-08-06 15:50:50.687500,-88.6
2019-08-06 15:50:50.703125,-74.6
2019-08-06 15:50:50.718750,-60.86
2019-08-06 15:50:50.734375,-48.58
2019-08-06 15:50:50.750000,-38.06
2019-08-06 15:50:50.765625,-28.59
2019-08-06 15:50:50.781250,-19.16
2019-08-06 15:50:50.796875,-8.39
2019-08-06 15:50:50.812500,4.98
2019-08-06 15:50:50.828125,21.93
2019-08-06 15:50:50.843750,42.91
2019-08-06 15:50:50.859375,68.26
2019-08-06 15:50:50.875000,96.82
2019-08-06 15:50:50.890625,126.37
2019-08-06 15:50:50.906250,154.03
2019-08-06 15:50:50.921875,176.43
2019-08-06 15:50:50.937500,190.44
2019-08-06 15:50:50.953125,193.8
2019-08-06 15:50:50.968750,185.5
2019-08-06 15:50:50.984375,163.28
2019-08-06 15:50:51.000000,130.88
2019-08-06 15:50:51.015625,93.0
2019-08-06 15:50:51.031250,54.22
2019-08-06 15:50:51.046875,18.29
2019-08-06 15:50:51.062500,-12.27
2019-08-06 15:50:51.078125,-36.22
2019-08-06 15:50:51.093750,-53.26
2019-08-06 15:50:51.109375,-63.98
2019-08-06 15:50:51.125000,-69.3
2019-08-06 15:50:51.140625,-69.99
2019-08-06 15:50:51.156250,-67.59
2019-08-06 15:50:51.171875,-63.55
2019-08-06 15:50:51.187500,-58.91
2019-08-06 15:50:51.203125,-54.34
2019-08-06 15:50:51.218750,-50.24
2019-08-06 15:50:51.234375,-46.64
2019-08-06 15:50:51.250000,-43.58
2019-08-06 15:50:51.265625,-40.95
2019-08-06 15:50:51.281250,-38.16
2019-08-06 15:50:51.296875,-35.77
2019-08-06 15:50:51.312500,-34.54
2019-08-06 15:50:51.328125,-35.21
2019-08-06 15:50:51.343750,-38.42
2019-08-06 15:50:51.359375,-44.62
2019-08-06 15:50:51.375000,-53.55
2019-08-06 15:50:51.390625,-64.54
2019-08-06 15:50:51.406250,-78.25
2019-08-06 15:50:51.421875,-91.76
2019-08-06 15:50:51.437500,-103.15
2019-08-06 15:50:51.453125,-110.6
2019-08-06 15:50:51.468750,-112.52
2019-08-06 15:50:51.484375,-107.89
2019-08-06 15:50:51.500000,-96.4
2019-08-06 15:50:51.515625,-78.37
2019-08-06 15:50:51.531250,-54.84
2019-08-06 15:50:51.546875,-27.38
2019-08-06 15:50:51.562500,2.24
2019-08-06 15:50:51.578125,31.57
2019-08-06 15:50:51.593750,58.3
2019-08-06 15:50:51.609375,80.7
2019-08-06 15:50:51.625000,97.64
2019-08-06 15:50:51.640625,108.78
2019-08-06 15:50:51.656250,114.8
2019-08-06 15:50:51.671875,117.06
2019-08-06 15:50:51.687500,117.51
2019-08-06 15:50:51.703125,118.2
2019-08-06 15:50:51.718750,120.43
2019-08-06 15:50:51.734375,125.21
2019-08-06 15:50:51.750000,132.89
2019-08-06 15:50:51.765625,143.07
2019-08-06 15:50:51.781250,154.9
2019-08-06 15:50:51.796875,167.44
2019-08-06 15:50:51.812500,179.78
2019-08-06 15:50:51.828125,191.3
2019-08-06 15:50:51.843750,201.29
2019-08-06 15:50:51.859375,208.59
2019-08-06 15:50:51.875000,212.02
2019-08-06 15:50:51.890625,210.43
2019-08-06 15:50:51.906250,202.5
2019-08-06 15:50:51.921875,187.34
2019-08-06 15:50:51.937500,164.53
2019-08-06 15:50:51.953125,133.77
2019-08-06 15:50:51.968750,98.55
2019-08-06 15:50:51.984375,61.82
2019-08-06 15:50:52.000000,25.86
2019-08-06 15:50:52.015625,-8.02
2019-08-06 15:50:52.031250,-39.74
2019-08-06 15:50:52.046875,-70.31
2019-08-06 15:50:52.062500,-101.02
2019-08-06 15:50:52.078125,-132.48
2019-08-06 15:50:52.093750,-164.34
2019-08-06 15:50:52.109375,-195.12
2019-08-06 15:50:52.125000,-223.09
2019-08-06 15:50:52.140625,-246.91
2019-08-06 15:50:52.156250,-266.22
2019-08-06 15:50:52.171875,-282.09
2019-08-06 15:50:52.187500,-296.88
2019-08-06 15:50:52.203125,-313.26
2019-08-06 15:50:52.218750,-333.05
2019-08-06 15:50:52.234375,-355.91
2019-08-06 15:50:52.250000,-379.14
2019-08-06 15:50:52.265625,-398.41
2019-08-06 15:50:52.281250,-408.79
2019-08-06 15:50:52.296875,-406.24
2019-08-06 15:50:52.312500,-388.75
2019-08-06 15:50:52.328125,-356.52
2019-08-06 15:50:52.343750,-311.7
2019-08-06 15:50:52.359375,-257.89
2019-08-06 15:50:52.375000,-199.7
2019-08-06 15:50:52.390625,-142.46
2019-08-06 15:50:52.406250,-90.92
