2019-08-14 16:19:02.000000,-0.0
2019-08-14 16:19:02.015625,-0.0
2019-08-14 16:19:02.031250,-0.0
2019-08-14 16:19:02.046875,-0.0
2019-08-14 16:19:02.062500,-0.0
2019-08-14 16:19:02.078125,-0.0
2019-08-14 16:19:02.093750,-0.0
2019-08-14 16:19:02.109375,-0.0
2019-08-14 16:19:02.125000,-0.0
2019-08-14 16:19:02.140625,-0.0
2019-08-14 16:19:02.156250,0.0
2019-08-14 16:19:02.171875,0.01
2019-08-14 16:19:02.187500,0.01
2019-08-14 16:19:02.203125,-0.0
2019-08-14 16:19:02.218750,-0.03
2019-08-14 16:19:02.234375,-0.05
2019-08-14 16:19:02.250000,-0.05
2019-08-14 16:19:02.265625,0.0
2019-08-14 16:19:02.281250,0.13
2019-08-14 16:19:02.296875,0.36
2019-08-14 16:19:02.312500,0.66
2019-08-14 16:19:02.328125,1.01
2019-08-14 16:19:02.343750,1.37
2019-08-14 16:19:02.359375,1.72
2019-08-14 16:19:02.375000,2.06
2019-08-14 16:19:02.390625,2.4
2019-08-14 16:19:02.406250,2.79
2019-08-14 16:19:02.421875,3.24
2019-08-14 16:19:02.437500,3.8
2019-08-14 16:19:02.453125,4.42
2019-08-14 16:19:02.468750,5.06
2019-08-14 16:19:02.484375,5.66
2019-08-14 16:19:02.500000,6.2
2019-08-14 16:19:02.515625,6.68
2019-08-14 16:19:02.531250,7.15
2019-08-14 16:19:02.546875,7.68
2019-08-14 16:19:02.562500,8.31
2019-08-14 16:19:02.578125,9.14
2019-08-14 16:19:02.593750,10.09
2019-08-14 16:19:02.609375,11.04
2019-08-14 16:19:02.625000,11.88
2019-08-14 16:19:02.640625,12.57
2019-08-14 16:19:02.656250,13.15
2019-08-14 16:19:02.671875,13.79
2019-08-14 16:19:02.687500,14.7
2019-08-14 16:19:02.703125,16.04
2019-08-14 16:19:02.718750,18.03
2019-08-14 16:19:02.734375,20.49
2019-08-14 16:19:02.750000,23.16
2019-08-14 16:19:02.765625,25.73
2019-08-14 16:19:02.781250,28.06
2019-08-14 16:19:02.796875,30.2
2019-08-14 16:19:02.812500,32.48
2019-08-14 16:19:02.828125,35.32
2019-08-14 16:19:02.843750,39.03
2019-08-14 16:19:02.859375,44.0
2019-08-14 16:19:02.875000,49.87
2019-08-14 16:19:02.890625,56.12
2019-08-14 16:19:02.906250,62.17
2019-08-14 16:19:02.921875,67.64
2019-08-14 16:19:02.937500,72.61
2019-08-14 16:19:02.953125,77.55
2019-08-14 16:19:02.968750,83.15
2019-08-14 16:19:02.984375,89.92
2019-08-14 16:19:03.000000,98.41
2019-08-14 16:19:03.015625,108.09
2019-08-14 16:19:03.031250,118.18
2019-08-14 16:19:03.046875,127.8
2019-08-14 16:19:03.062500,136.38
2019-08-14 16:19:03.078125,143.95
2019-08-14 16:19:03.093750,151.14
2019-08-14 16:19:03.109375,159.28
2019-08-14 16:19:03.125000,167.07
2019-08-14 16:19:03.140625,176.78
2019-08-14 16:19:03.156250,189.02
2019-08-14 16:19:03.171875,203.92
2019-08-14 16:19:03.187500,220.29
2019-08-14 16:19:03.203125,235.24
2019-08-14 16:19:03.218750,244.44
2019-08-14 16:19:03.234375,243.24
2019-08-14 16:19:03.250000,228.28
2019-08-14 16:19:03.265625,198.68
2019-08-14 16:19:03.281250,156.84
2019-08-14 16:19:03.296875,106.62
2019-08-14 16:19:03.312500,52.39
2019-08-14 16:19:03.328125,-2.57
2019-08-14 16:19:03.343750,-56.73
2019-08-14 16:19:03.359375,-109.84
2019-08-14 16:19:03.375000,-162.04
2019-08-14 16:19:03.390625,-213.06
2019-08-14 16:19:03.406250,-262.06
2019-08-14 16:19:03.421875,-307.59
2019-08-14 16:19:03.437500,-348.72
2019-08-14 16:19:03.453125,-384.67
2019-08-14 16:19:03.468750,-414.81
2019-08-14 16:19:03.484375,-438.3
2019-08-14 16:19:03.500000,-453.75
2019-08-14 16:19:03.515625,-459.44
2019-08-14 16:19:03.531250,-453.63
2019-08-14 16:19:03.546875,-435.27
2019-08-14 16:19:03.562500,-404.16
2019-08-14 16:19:03.578125,-361.57
2019-08-14 16:19:03.593750,-309.64
2019-08-14 16:19:03.609375,-251.15
2019-08-14 16:19:03.625000,-189.02
2019-08-14 16:19:03.640625,-125.86
2019-08-14 16:19:03.656250,-63.81
2019-08-14 16:19:03.671875,-4.57
2019-08-14 16:19:03.687500,50.39
2019-08-14 16:19:03.703125,99.83
2019-08-14 16:19:03.718750,141.85
2019-08-14 16:19:03.734375,175.28
2019-08-14 16:19:03.750000,199.45
2019-08-14 16:19:03.765625,214.22
2019-08-14 16:19:03.781250,219.99
2019-08-14 16:19:03.796875,217.63
2019-08-14 16:19:03.812500,208.29
2019-08-14 16:19:03.828125,193.16
2019-08-14 16:19:03.843750,173.45
2019-08-14 16:19:03.859375,150.18
2019-08-14 16:19:03.875000,124.41
2019-08-14 16:19:03.890625,97.15
2019-08-14 16:19:03.906250,69.39
2019-08-14 16:19:03.921875,42.15
2019-08-14 16:19:03.937500,16.54
2019-08-14 16:19:03.953125,-6.4
2019-08-14 16:19:03.968750,-25.8
2019-08-14 16:19:03.984375,-41.04
2019-08-14 16:19:04.000000,-51.8
2019-08-14 16:19:04.015625,-57.98
2019-08-14 16:19:04.031250,-59.77
2019-08-14 16:19:04.046875,-57.63
2019-08-14 16:19:04.062500,-52.26
2019-08-14 16:19:04.078125,-44.43
2019-08-14 16:19:04.093750,-34.98
2019-08-14 16:19:04.109375,-24.76
2019-08-14 16:19:04.125000,-14.7
2019-08-14 16:19:04.140625,-5.71
2019-08-14 16:19:04.156250,1.31
2019-08-14 16:19:04.171875,5.93
2019-08-14 16:19:04.187500,7.55
2019-08-14 16:19:04.203125,5.31
2019-08-14 16:19:04.218750,-1.59
2019-08-14 16:19:04.234375,-13.81
2019-08-14 16:19:04.250000,-31.78
2019-08-14 16:19:04.265625,-55.56
2019-08-14 16:19:04.281250,-84.83
2019-08-14 16:19:04.296875,-118.71
2019-08-14 16:19:04.312500,-155.85
2019-08-14 16:19:04.328125,-194.57
2019-08-14 16:19:04.343750,-233.04
2019-08-14 16:19:04.359375,-269.24
2019-08-14 16:19:04.375000,-301.15
2019-08-14 16:19:04.390625,-326.92
2019-08-14 16:19:04.406250,-344.99
2019-08-14 16:19:04.421875,-354.28
2019-08-14 16:19:04.437500,-354.22
2019-08-14 16:19:04.453125,-344.69
2019-08-14 16:19:04.468750,-324.92
2019-08-14 16:19:04.484375,-294.83
2019-08-14 16:19:04.500000,-254.79
2019-08-14 16:19:04.515625,-205.71
2019-08-14 16:19:04.531250,-148.96
2019-08-14 16:19:04.546875,-86.41
2019-08-14 16:19:04.562500,-20.42
2019-08-14 16:19:04.578125,46.29
2019-08-14 16:19:04.593750,110.9
2019-08-14 16:19:04.609375,170.66
2019-08-14 16:19:04.625000,223.01
2019-08-14 16:19:04.640625,266.0
2019-08-14 16:19:04.656250,298.47
2019-08-14 16:19:04.671875,319.89
2019-08-14 16:19:04.687500,330.96
2019-08-14 16:19:04.703125,332.98
2019-08-14 16:19:04.718750,327.55
2019-08-14 16:19:04.734375,316.47
2019-08-14 16:19:04.750000,301.4
2019-08-14 16:19:04.765625,283.77
2019-08-14 16:19:04.781250,264.83
2019-08-14 16:19:04.796875,245.51
2019-08-14 16:19:04.812500,226.45
2019-08-14 16:19:04.828125,208.05
2019-08-14 16:19:04.843750,190.36
2019-08-14 16:19:04.859375,173.28
2019-08-14 16:19:04.875000,156.9
2019-08-14 16:19:04.890625,141.25
2019-08-14 16:19:04.906250,126.34
2019-08-14 16:19:04.921875,112.21
2019-08-14 16:19:04.937500,98.89
2019-08-14 16:19:04.953125,86.47
2019-08-14 16:19:04.968750,74.99
2019-08-14 16:19:04.984375,64.48
2019-08-14 16:19:05.000000,54.92
2019-08-14 16:19:05.015625,46.32
2019-08-14 16:19:05.031250,38.64
2019-08-14 16:19:05.046875,31.79
2019-08-14 16:19:05.062500,25.7
2019-08-14 16:19:05.078125,20.27
2019-08-14 16:19:05.093750,15.39
2019-08-14 16:19:05.109375,11.0
2019-08-14 16:19:05.125000,7.0
2019-08-14 16:19:05.140625,3.36
2019-08-14 16:19:05.156250,0.07
2019-08-14 16:19:05.171875,-2.9
2019-08-14 16:19:05.187500,-5.52
2019-08-14 16:19:05.203125,-7.84
2019-08-14 16:19:05.218750,-9.85
2019-08-14 16:19:05.234375,-11.56
2019-08-14 16:19:05.250000,-12.99
2019-08-14 16:19:05.265625,-14.19
2019-08-14 16:19:05.281250,-15.15
2019-08-14 16:19:05.296875,-15.88
2019-08-14 16:19:05.312500,-16.38
2019-08-14 16:19:05.328125,-16.64
2019-08-14 16:19:05.343750,-16.6
2019-08-14 16:19:05.359375,-16.24
2019-08-14 16:19:05.375000,-15.55
2019-08-14 16:19:05.390625,-14.53
2019-08-14 16:19:05.406250,-13.22
2019-08-14 16:19:05.421875,-11.71
2019-08-14 16:19:05.437500,-10.12
2019-08-14 16:19:05.453125,-8.54
2019-08-14 16:19:05.468750,-7.08
2019-08-14 16:19:05.484375,-5.85
2019-08-14 16:19:05.500000,-4.88
2019-08-14 16:19:05.515625,-4.15
2019-08-14 16:19:05.531250,-3.62
2019-08-14 16:19:05.546875,-3.19
2019-08-14 16:19:05.562500,-2.78
2019-08-14 16:19:05.578125,-2.27
2019-08-14 16:19:05.593750,-1.58
2019-08-14 16:19:05.609375,-0.67
2019-08-14 16:19:05.625000,0.48
2019-08-14 16:19:05.640625,1.86
2019-08-14 16:19:05.656250,3.42
2019-08-14 16:19:05.671875,5.09
2019-08-14 16:19:05.687500,6.74
2019-08-14 16:19:05.703125,8.27
2019-08-14 16:19:05.718750,9.55
2019-08-14 16:19:05.734375,10.42
2019-08-14 16:19:05.750000,10.83
2019-08-14 16:19:05.765625,10.71
2019-08-14 16:19:05.781250,10.04
2019-08-14 16:19:05.796875,8.82
2019-08-14 16:19:05.812500,7.11
2019-08-14 16:19:05.828125,4.95
2019-08-14 16:19:05.843750,2.41
2019-08-14 16:19:05.859375,-0.39
2019-08-14 16:19:05.875000,-3.33
2019-08-14 16:19:05.890625,-6.24
2019-08-14 16:19:05.906250,-8.9
2019-08-14 16:19:05.921875,-11.09
2019-08-14 16:19:05.937500,-12.61
2019-08-14 16:19:05.953125,-13.33
2019-08-14 16:19:05.968750,-13.19
2019-08-14 16:19:05.984375,-12.17
2019-08-14 16:19:06.000000,-10.3
2019-08-14 16:19:06.015625,-7.57
2019-08-14 16:19:06.031250,-3.97
2019-08-14 16:19:06.046875,0.54
2019-08-14 16:19:06.062500,6.01
2019-08-14 16:19:06.078125,12.39
2019-08-14 16:19:06.093750,19.6
2019-08-14 16:19:06.109375,27.48
2019-08-14 16:19:06.125000,35.77
2019-08-14 16:19:06.140625,44.21
2019-08-14 16:19:06.156250,52.64
2019-08-14 16:19:06.171875,60.96
2019-08-14 16:19:06.187500,69.21
2019-08-14 16:19:06.203125,77.4
2019-08-14 16:19:06.218750,85.54
2019-08-14 16:19:06.234375,93.45
2019-08-14 16:19:06.250000,100.82
2019-08-14 16:19:06.265625,107.21
2019-08-14 16:19:06.281250,112.24
2019-08-14 16:19:06.296875,115.66
2019-08-14 16:19:06.312500,117.5
2019-08-14 16:19:06.328125,118.1
2019-08-14 16:19:06.343750,117.93
2019-08-14 16:19:06.359375,117.39
2019-08-14 16:19:06.375000,116.64
2019-08-14 16:19:06.390625,115.49
2019-08-14 16:19:06.406250,113.45
2019-08-14 16:19:06.421875,110.04
2019-08-14 16:19:06.437500,105.05
2019-08-14 16:19:06.453125,98.76
2019-08-14 16:19:06.468750,91.88
2019-08-14 16:19:06.484375,85.22
2019-08-14 16:19:06.500000,79.29
2019-08-14 16:19:06.515625,73.97
2019-08-14 16:19:06.531250,68.41
2019-08-14 16:19:06.546875,61.36
2019-08-14 16:19:06.562500,51.69
2019-08-14 16:19:06.578125,38.94
2019-08-14 16:19:06.593750,23.57
2019-08-14 16:19:06.609375,6.82
2019-08-14 16:19:06.625000,-9.97
2019-08-14 16:19:06.640625,-26.03
2019-08-14 16:19:06.656250,-41.62
2019-08-14 16:19:06.671875,-57.79
2019-08-14 16:19:06.687500,-75.91
2019-08-14 16:19:06.703125,-96.88
2019-08-14 16:19:06.718750,-120.81
2019-08-14 16:19:06.734375,-147.43
2019-08-14 16:19:06.750000,-176.43
2019-08-14 16:19:06.765625,-207.65
2019-08-14 16:19:06.781250,-240.54
2019-08-14 16:19:06.796875,-273.27
2019-08-14 16:19:06.812500,-302.31
2019-08-14 16:19:06.828125,-323.18
2019-08-14 16:19:06.843750,-332.2
2019-08-14 16:19:06.859375,-328.39
2019-08-14 16:19:06.875000,-314.36
2019-08-14 16:19:06.890625,-295.16
2019-08-14 16:19:06.906250,-275.95
2019-08-14 16:19:06.921875,-259.51
2019-08-14 16:19:06.937500,-245.29
2019-08-14 16:19:06.953125,-230.57
2019-08-14 16:19:06.968750,-212.84
2019-08-14 16:19:06.984375,-192.17
2019-08-14 16:19:07.000000,-171.43
2019-08-14 16:19:07.015625,-154.59
2019-08-14 16:19:07.031250,-143.88
2019-08-14 16:19:07.046875,-137.95
2019-08-14 16:19:07.062500,-132.22
2019-08-14 16:19:07.078125,-121.39
2019-08-14 16:19:07.093750,-102.63
2019-08-14 16:19:07.109375,-77.48
2019-08-14 16:19:07.125000,-51.26
2019-08-14 16:19:07.140625,-30.23
2019-08-14 16:19:07.156250,-18.11
2019-08-14 16:19:07.171875,-14.05
2019-08-14 16:19:07.187500,-13.39
2019-08-14 16:19:07.203125,-10.38
2019-08-14 16:19:07.218750,-1.62
2019-08-14 16:19:07.234375,11.84
2019-08-14 16:19:07.250000,25.32
2019-08-14 16:19:07.265625,33.33
2019-08-14 16:19:07.281250,32.99
2019-08-14 16:19:07.296875,25.85
2019-08-14 16:19:07.312500,17.34
2019-08-14 16:19:07.328125,13.61
2019-08-14 16:19:07.343750,18.01
2019-08-14 16:19:07.359375,29.16
2019-08-14 16:19:07.375000,41.63
2019-08-14 16:19:07.390625,49.0
2019-08-14 16:19:07.406250,47.61
2019-08-14 16:19:07.421875,38.52
2019-08-14 16:19:07.437500,27.0
2019-08-14 16:19:07.453125,19.27
2019-08-14 16:19:07.468750,18.92
2019-08-14 16:19:07.484375,24.86
2019-08-14 16:19:07.500000,32.14
2019-08-14 16:19:07.515625,35.08
2019-08-14 16:19:07.531250,30.78
2019-08-14 16:19:07.546875,20.72
2019-08-14 16:19:07.562500,9.74
2019-08-14 16:19:07.578125,2.89
2019-08-14 16:19:07.593750,2.3
2019-08-14 16:19:07.609375,5.98
2019-08-14 16:19:07.625000,9.08
2019-08-14 16:19:07.640625,6.83
2019-08-14 16:19:07.656250,-2.22
2019-08-14 16:19:07.671875,-15.46
2019-08-14 16:19:07.687500,-27.37
2019-08-14 16:19:07.703125,-32.66
2019-08-14 16:19:07.718750,-29.17
2019-08-14 16:19:07.734375,-19.21
2019-08-14 16:19:07.750000,-8.25
2019-08-14 16:19:07.765625,-1.71
2019-08-14 16:19:07.781250,-2.06
2019-08-14 16:19:07.796875,-7.27
2019-08-14 16:19:07.812500,-12.14
2019-08-14 16:19:07.828125,-11.2
2019-08-14 16:19:07.843750,-2.0
2019-08-14 16:19:07.859375,13.32
2019-08-14 16:19:07.875000,29.12
2019-08-14 16:19:07.890625,39.43
2019-08-14 16:19:07.906250,41.34
2019-08-14 16:19:07.921875,36.46
2019-08-14 16:19:07.937500,30.04
2019-08-14 16:19:07.953125,27.58
2019-08-14 16:19:07.968750,31.62
2019-08-14 16:19:07.984375,40.31
2019-08-14 16:19:08.000000,48.63
2019-08-14 16:19:08.015625,51.63
2019-08-14 16:19:08.031250,47.51
2019-08-14 16:19:08.046875,38.81
2019-08-14 16:19:08.062500,30.77
2019-08-14 16:19:08.078125,28.2
2019-08-14 16:19:08.093750,32.21
2019-08-14 16:19:08.109375,39.6
2019-08-14 16:19:08.125000,44.39
2019-08-14 16:19:08.140625,41.45
2019-08-14 16:19:08.156250,29.8
2019-08-14 16:19:08.171875,13.24
2019-08-14 16:19:08.187500,-1.32
2019-08-14 16:19:08.203125,-8.05
2019-08-14 16:19:08.218750,-5.26
2019-08-14 16:19:08.234375,3.38
2019-08-14 16:19:08.250000,10.95
2019-08-14 16:19:08.265625,11.34
2019-08-14 16:19:08.281250,2.68
2019-08-14 16:19:08.296875,-11.55
2019-08-14 16:19:08.312500,-24.69
2019-08-14 16:19:08.328125,-30.69
2019-08-14 16:19:08.343750,-27.53
2019-08-14 16:19:08.359375,-18.21
2019-08-14 16:19:08.375000,-8.81
2019-08-14 16:19:08.390625,-4.57
2019-08-14 16:19:08.406250,-6.92
2019-08-14 16:19:08.421875,-12.92
2019-08-14 16:19:08.437500,-17.18
2019-08-14 16:19:08.453125,-15.5
2019-08-14 16:19:08.468750,-7.67
2019-08-14 16:19:08.484375,2.24
2019-08-14 16:19:08.500000,8.27
2019-08-14 16:19:08.515625,6.15
2019-08-14 16:19:08.531250,-3.94
2019-08-14 16:19:08.546875,-17.18
2019-08-14 16:19:08.562500,-26.66
2019-08-14 16:19:08.578125,-27.09
2019-08-14 16:19:08.593750,-17.83
2019-08-14 16:19:08.609375,-3.1
2019-08-14 16:19:08.625000,10.23
2019-08-14 16:19:08.640625,16.59
2019-08-14 16:19:08.656250,14.78
2019-08-14 16:19:08.671875,8.26
2019-08-14 16:19:08.687500,3.18
2019-08-14 16:19:08.703125,4.3
2019-08-14 16:19:08.718750,12.25
2019-08-14 16:19:08.734375,23.04
2019-08-14 16:19:08.750000,30.26
2019-08-14 16:19:08.765625,29.09
2019-08-14 16:19:08.781250,19.15
2019-08-14 16:19:08.796875,5.11
2019-08-14 16:19:08.812500,-5.98
2019-08-14 16:19:08.828125,-8.33
2019-08-14 16:19:08.843750,-0.71
2019-08-14 16:19:08.859375,13.19
2019-08-14 16:19:08.875000,26.8
2019-08-14 16:19:08.890625,34.52
2019-08-14 16:19:08.906250,34.8
2019-08-14 16:19:08.921875,30.52
2019-08-14 16:19:08.937500,26.97
2019-08-14 16:19:08.953125,28.33
2019-08-14 16:19:08.968750,34.98
2019-08-14 16:19:08.984375,43.23
2019-08-14 16:19:09.000000,47.61
2019-08-14 16:19:09.015625,44.28
2019-08-14 16:19:09.031250,33.46
2019-08-14 16:19:09.046875,19.47
2019-08-14 16:19:09.062500,8.31
2019-08-14 16:19:09.078125,3.93
2019-08-14 16:19:09.093750,6.07
2019-08-14 16:19:09.109375,10.27
2019-08-14 16:19:09.125000,10.56
2019-08-14 16:19:09.140625,3.1
2019-08-14 16:19:09.156250,-11.24
2019-08-14 16:19:09.171875,-27.26
2019-08-14 16:19:09.187500,-38.1
2019-08-14 16:19:09.203125,-39.32
2019-08-14 16:19:09.218750,-31.45
2019-08-14 16:19:09.234375,-19.83
2019-08-14 16:19:09.250000,-11.66
2019-08-14 16:19:09.265625,-11.84
2019-08-14 16:19:09.281250,-20.15
2019-08-14 16:19:09.296875,-31.37
2019-08-14 16:19:09.312500,-38.44
2019-08-14 16:19:09.328125,-36.61
2019-08-14 16:19:09.343750,-26.37
2019-08-14 16:19:09.359375,-13.05
2019-08-14 16:19:09.375000,-3.64
2019-08-14 16:19:09.390625,-2.61
2019-08-14 16:19:09.406250,-9.18
2019-08-14 16:19:09.421875,-17.97
2019-08-14 16:19:09.437500,-22.39
2019-08-14 16:19:09.453125,-18.72
2019-08-14 16:19:09.468750,-8.38
2019-08-14 16:19:09.484375,2.98
2019-08-14 16:19:09.500000,9.0
2019-08-14 16:19:09.515625,6.47
2019-08-14 16:19:09.531250,-2.69
2019-08-14 16:19:09.546875,-12.43
2019-08-14 16:19:09.562500,-16.01
2019-08-14 16:19:09.578125,-9.89
2019-08-14 16:19:09.593750,4.47
2019-08-14 16:19:09.609375,21.47
2019-08-14 16:19:09.625000,34.51
2019-08-14 16:19:09.640625,39.6
2019-08-14 16:19:09.656250,37.13
2019-08-14 16:19:09.671875,31.4
2019-08-14 16:19:09.687500,27.78
2019-08-14 16:19:09.703125,29.58
2019-08-14 16:19:09.718750,36.27
2019-08-14 16:19:09.734375,44.01
2019-08-14 16:19:09.750000,48.14
2019-08-14 16:19:09.765625,45.92
2019-08-14 16:19:09.781250,38.13
2019-08-14 16:19:09.796875,28.4
2019-08-14 16:19:09.812500,20.96
2019-08-14 16:19:09.828125,17.98
2019-08-14 16:19:09.843750,18.26
2019-08-14 16:19:09.859375,18.0
2019-08-14 16:19:09.875000,13.25
2019-08-14 16:19:09.890625,2.47
2019-08-14 16:19:09.906250,-12.45
2019-08-14 16:19:09.921875,-26.81
2019-08-14 16:19:09.937500,-35.83
2019-08-14 16:19:09.953125,-37.36
2019-08-14 16:19:09.968750,-32.9
2019-08-14 16:19:09.984375,-26.99
2019-08-14 16:19:10.000000,-24.5
2019-08-14 16:19:10.015625,-27.65
2019-08-14 16:19:10.031250,-34.66
2019-08-14 16:19:10.046875,-40.58
2019-08-14 16:19:10.062500,-40.11
2019-08-14 16:19:10.078125,-30.74
2019-08-14 16:19:10.093750,-14.52
2019-08-14 16:19:10.109375,2.94
2019-08-14 16:19:10.125000,15.4
2019-08-14 16:19:10.140625,19.55
2019-08-14 16:19:10.156250,16.64
2019-08-14 16:19:10.171875,11.75
2019-08-14 16:19:10.187500,10.6
2019-08-14 16:19:10.203125,16.06
2019-08-14 16:19:10.218750,26.54
2019-08-14 16:19:10.234375,36.9
2019-08-14 16:19:10.250000,41.71
2019-08-14 16:19:10.265625,38.58
2019-08-14 16:19:10.281250,29.59
2019-08-14 16:19:10.296875,19.92
2019-08-14 16:19:10.312500,14.6
2019-08-14 16:19:10.328125,15.32
2019-08-14 16:19:10.343750,19.32
2019-08-14 16:19:10.359375,21.07
2019-08-14 16:19:10.375000,15.77
2019-08-14 16:19:10.390625,2.56
2019-08-14 16:19:10.406250,-14.72
2019-08-14 16:19:10.421875,-29.33
2019-08-14 16:19:10.437500,-35.55
2019-08-14 16:19:10.453125,-31.9
2019-08-14 16:19:10.468750,-22.05
2019-08-14 16:19:10.484375,-12.84
2019-08-14 16:19:10.500000,-10.17
2019-08-14 16:19:10.515625,-15.65
2019-08-14 16:19:10.531250,-25.53
2019-08-14 16:19:10.546875,-32.87
2019-08-14 16:19:10.562500,-31.47
2019-08-14 16:19:10.578125,-19.49
2019-08-14 16:19:10.593750,-0.64
2019-08-14 16:19:10.609375,17.96
2019-08-14 16:19:10.625000,29.61
2019-08-14 16:19:10.640625,31.58
2019-08-14 16:19:10.656250,26.22
2019-08-14 16:19:10.671875,19.2
2019-08-14 16:19:10.687500,16.02
2019-08-14 16:19:10.703125,18.74
2019-08-14 16:19:10.718750,25.07
2019-08-14 16:19:10.734375,29.94
2019-08-14 16:19:10.750000,28.79
2019-08-14 16:19:10.765625,20.39
2019-08-14 16:19:10.781250,7.71
2019-08-14 16:19:10.796875,-3.93
2019-08-14 16:19:10.812500,-9.9
2019-08-14 16:19:10.828125,-9.06
2019-08-14 16:19:10.843750,-4.33
2019-08-14 16:19:10.859375,-0.98
2019-08-14 16:19:10.875000,-3.48
2019-08-14 16:19:10.890625,-12.76
2019-08-14 16:19:10.906250,-25.48
2019-08-14 16:19:10.921875,-35.9
2019-08-14 16:19:10.937500,-39.25
2019-08-14 16:19:10.953125,-34.53
2019-08-14 16:19:10.968750,-25.32
2019-08-14 16:19:10.984375,-17.71
2019-08-14 16:19:11.000000,-16.57
2019-08-14 16:19:11.015625,-22.56
2019-08-14 16:19:11.031250,-31.48
2019-08-14 16:19:11.046875,-36.71
2019-08-14 16:19:11.062500,-33.0
2019-08-14 16:19:11.078125,-19.7
2019-08-14 16:19:11.093750,-1.32
2019-08-14 16:19:11.109375,14.79
2019-08-14 16:19:11.125000,22.65
2019-08-14 16:19:11.140625,20.76
2019-08-14 16:19:11.156250,12.81
2019-08-14 16:19:11.171875,5.21
2019-08-14 16:19:11.187500,3.21
2019-08-14 16:19:11.203125,7.89
2019-08-14 16:19:11.218750,15.66
2019-08-14 16:19:11.234375,20.89
2019-08-14 16:19:11.250000,19.63
2019-08-14 16:19:11.265625,12.17
2019-08-14 16:19:11.281250,3.05
2019-08-14 16:19:11.296875,-1.78
2019-08-14 16:19:11.312500,1.42
2019-08-14 16:19:11.328125,11.61
2019-08-14 16:19:11.343750,23.63
2019-08-14 16:19:11.359375,31.09
2019-08-14 16:19:11.375000,30.2
2019-08-14 16:19:11.390625,22.0
2019-08-14 16:19:11.406250,11.7
2019-08-14 16:19:11.421875,5.5
2019-08-14 16:19:11.437500,7.1
2019-08-14 16:19:11.453125,15.47
2019-08-14 16:19:11.468750,25.5
2019-08-14 16:19:11.484375,31.01
2019-08-14 16:19:11.500000,28.21
2019-08-14 16:19:11.515625,17.97
2019-08-14 16:19:11.531250,5.42
2019-08-14 16:19:11.546875,-2.98
2019-08-14 16:19:11.562500,-2.96
2019-08-14 16:19:11.578125,5.21
2019-08-14 16:19:11.593750,16.68
2019-08-14 16:19:11.609375,24.75
2019-08-14 16:19:11.625000,24.85
2019-08-14 16:19:11.640625,16.91
2019-08-14 16:19:11.656250,5.53
2019-08-14 16:19:11.671875,-2.84
2019-08-14 16:19:11.687500,-3.66
2019-08-14 16:19:11.703125,3.13
2019-08-14 16:19:11.718750,13.11
2019-08-14 16:19:11.734375,20.26
2019-08-14 16:19:11.750000,20.57
2019-08-14 16:19:11.765625,14.35
2019-08-14 16:19:11.781250,5.73
2019-08-14 16:19:11.796875,-0.13
2019-08-14 16:19:11.812500,-0.36
2019-08-14 16:19:11.828125,3.75
2019-08-14 16:19:11.843750,7.65
2019-08-14 16:19:11.859375,6.42
2019-08-14 16:19:11.875000,-2.08
2019-08-14 16:19:11.890625,-15.87
2019-08-14 16:19:11.906250,-29.64
2019-08-14 16:19:11.921875,-37.93
2019-08-14 16:19:11.937500,-38.01
2019-08-14 16:19:11.953125,-31.34
2019-08-14 16:19:11.968750,-22.91
2019-08-14 16:19:11.984375,-18.38
2019-08-14 16:19:12.000000,-20.84
2019-08-14 16:19:12.015625,-29.17
2019-08-14 16:19:12.031250,-38.38
2019-08-14 16:19:12.046875,-42.41
2019-08-14 16:19:12.062500,-37.57
2019-08-14 16:19:12.078125,-24.45
2019-08-14 16:19:12.093750,-7.75
2019-08-14 16:19:12.109375,6.53
2019-08-14 16:19:12.125000,14.47
2019-08-14 16:19:12.140625,16.18
2019-08-14 16:19:12.156250,15.55
2019-08-14 16:19:12.171875,17.46
2019-08-14 16:19:12.187500,24.61
2019-08-14 16:19:12.203125,35.77
2019-08-14 16:19:12.218750,46.42
2019-08-14 16:19:12.234375,51.53
2019-08-14 16:19:12.250000,48.64
2019-08-14 16:19:12.265625,39.38
2019-08-14 16:19:12.281250,28.5
2019-08-14 16:19:12.296875,21.07
2019-08-14 16:19:12.312500,19.49
2019-08-14 16:19:12.328125,22.2
2019-08-14 16:19:12.343750,24.75
2019-08-14 16:19:12.359375,22.55
2019-08-14 16:19:12.375000,13.84
2019-08-14 16:19:12.390625,0.63
2019-08-14 16:19:12.406250,-12.33
2019-08-14 16:19:12.421875,-20.2
2019-08-14 16:19:12.437500,-20.98
2019-08-14 16:19:12.453125,-16.3
2019-08-14 16:19:12.468750,-10.59
2019-08-14 16:19:12.484375,-8.52
2019-08-14 16:19:12.500000,-12.18
2019-08-14 16:19:12.515625,-20.05
2019-08-14 16:19:12.531250,-28.0
2019-08-14 16:19:12.546875,-31.66
2019-08-14 16:19:12.562500,-29.06
2019-08-14 16:19:12.578125,-21.92
2019-08-14 16:19:12.593750,-14.61
2019-08-14 16:19:12.609375,-11.58
2019-08-14 16:19:12.625000,-14.79
2019-08-14 16:19:12.640625,-22.37
2019-08-14 16:19:12.656250,-29.8
2019-08-14 16:19:12.671875,-32.49
2019-08-14 16:19:12.687500,-28.76
2019-08-14 16:19:12.703125,-20.87
2019-08-14 16:19:12.718750,-13.86
2019-08-14 16:19:12.734375,-12.63
2019-08-14 16:19:12.750000,-18.75
2019-08-14 16:19:12.765625,-29.27
2019-08-14 16:19:12.781250,-38.35
2019-08-14 16:19:12.796875,-40.32
2019-08-14 16:19:12.812500,-33.12
2019-08-14 16:19:12.828125,-19.39
2019-08-14 16:19:12.843750,-5.14
2019-08-14 16:19:12.859375,3.59
2019-08-14 16:19:12.875000,4.15
2019-08-14 16:19:12.890625,-1.32
2019-08-14 16:19:12.906250,-7.18
2019-08-14 16:19:12.921875,-7.57
2019-08-14 16:19:12.937500,0.13
2019-08-14 16:19:12.953125,13.59
2019-08-14 16:19:12.968750,26.9
2019-08-14 16:19:12.984375,33.89
2019-08-14 16:19:13.000000,31.84
2019-08-14 16:19:13.015625,23.13
2019-08-14 16:19:13.031250,13.9
2019-08-14 16:19:13.046875,10.46
2019-08-14 16:19:13.062500,15.66
2019-08-14 16:19:13.078125,27.22
2019-08-14 16:19:13.093750,39.06
2019-08-14 16:19:13.109375,44.96
2019-08-14 16:19:13.125000,42.01
2019-08-14 16:19:13.140625,32.13
2019-08-14 16:19:13.156250,20.87
2019-08-14 16:19:13.171875,13.93
2019-08-14 16:19:13.187500,14.01
2019-08-14 16:19:13.203125,19.53
2019-08-14 16:19:13.218750,25.88
2019-08-14 16:19:13.234375,28.35
2019-08-14 16:19:13.250000,24.98
2019-08-14 16:19:13.265625,17.48
2019-08-14 16:19:13.281250,9.92
2019-08-14 16:19:13.296875,6.06
2019-08-14 16:19:13.312500,6.73
2019-08-14 16:19:13.328125,9.34
2019-08-14 16:19:13.343750,9.3
2019-08-14 16:19:13.359375,3.03
2019-08-14 16:19:13.375000,-9.52
2019-08-14 16:19:13.390625,-24.17
2019-08-14 16:19:13.406250,-34.74
2019-08-14 16:19:13.421875,-36.35
2019-08-14 16:19:13.437500,-28.41
2019-08-14 16:19:13.453125,-15.13
2019-08-14 16:19:13.468750,-3.32
2019-08-14 16:19:13.484375,1.6
2019-08-14 16:19:13.500000,-1.3
2019-08-14 16:19:13.515625,-8.11
2019-08-14 16:19:13.531250,-12.4
2019-08-14 16:19:13.546875,-9.33
2019-08-14 16:19:13.562500,1.26
2019-08-14 16:19:13.578125,14.83
2019-08-14 16:19:13.593750,24.61
2019-08-14 16:19:13.609375,25.75
2019-08-14 16:19:13.625000,18.11
2019-08-14 16:19:13.640625,6.23
2019-08-14 16:19:13.656250,-3.37
2019-08-14 16:19:13.671875,-5.95
2019-08-14 16:19:13.687500,-1.23
2019-08-14 16:19:13.703125,6.92
2019-08-14 16:19:13.718750,12.73
2019-08-14 16:19:13.734375,11.97
2019-08-14 16:19:13.750000,4.38
2019-08-14 16:19:13.765625,-6.48
2019-08-14 16:19:13.781250,-15.28
2019-08-14 16:19:13.796875,-18.17
2019-08-14 16:19:13.812500,-14.95
2019-08-14 16:19:13.828125,-9.25
2019-08-14 16:19:13.843750,-6.37
2019-08-14 16:19:13.859375,-10.0
2019-08-14 16:19:13.875000,-20.03
2019-08-14 16:19:13.890625,-32.15
2019-08-14 16:19:13.906250,-40.49
2019-08-14 16:19:13.921875,-40.79
2019-08-14 16:19:13.937500,-33.03
2019-08-14 16:19:13.953125,-21.46
2019-08-14 16:19:13.968750,-12.16
2019-08-14 16:19:13.984375,-9.55
2019-08-14 16:19:14.000000,-13.53
2019-08-14 16:19:14.015625,-19.61
2019-08-14 16:19:14.031250,-21.5
2019-08-14 16:19:14.046875,-14.82
2019-08-14 16:19:14.062500,0.1
2019-08-14 16:19:14.078125,18.18
2019-08-14 16:19:14.093750,32.33
2019-08-14 16:19:14.109375,37.45
2019-08-14 16:19:14.125000,33.17
2019-08-14 16:19:14.140625,24.11
2019-08-14 16:19:14.156250,17.05
2019-08-14 16:19:14.171875,17.25
2019-08-14 16:19:14.187500,25.38
2019-08-14 16:19:14.203125,37.39
2019-08-14 16:19:14.218750,47.05
2019-08-14 16:19:14.234375,49.46
2019-08-14 16:19:14.250000,43.92
2019-08-14 16:19:14.265625,33.95
2019-08-14 16:19:14.281250,24.86
2019-08-14 16:19:14.296875,20.44
2019-08-14 16:19:14.312500,20.7
2019-08-14 16:19:14.328125,22.0
2019-08-14 16:19:14.343750,19.55
2019-08-14 16:19:14.359375,10.83
2019-08-14 16:19:14.375000,-2.8
2019-08-14 16:19:14.390625,-16.58
2019-08-14 16:19:14.406250,-25.16
2019-08-14 16:19:14.421875,-25.79
2019-08-14 16:19:14.437500,-20.11
2019-08-14 16:19:14.453125,-13.16
2019-08-14 16:19:14.468750,-10.52
2019-08-14 16:19:14.484375,-15.07
2019-08-14 16:19:14.500000,-25.13
2019-08-14 16:19:14.515625,-35.44
2019-08-14 16:19:14.531250,-40.22
2019-08-14 16:19:14.546875,-36.43
2019-08-14 16:19:14.562500,-25.6
2019-08-14 16:19:14.578125,-12.77
2019-08-14 16:19:14.593750,-3.78
2019-08-14 16:19:14.609375,-1.94
2019-08-14 16:19:14.625000,-6.19
2019-08-14 16:19:14.640625,-11.99
2019-08-14 16:19:14.656250,-14.16
2019-08-14 16:19:14.671875,-10.09
2019-08-14 16:19:14.687500,-1.42
2019-08-14 16:19:14.703125,6.71
2019-08-14 16:19:14.718750,8.71
2019-08-14 16:19:14.734375,1.98
2019-08-14 16:19:14.750000,-11.31
2019-08-14 16:19:14.765625,-25.07
2019-08-14 16:19:14.781250,-32.74
2019-08-14 16:19:14.796875,-30.76
2019-08-14 16:19:14.812500,-20.64
2019-08-14 16:19:14.828125,-7.93
2019-08-14 16:19:14.843750,0.94
2019-08-14 16:19:14.859375,2.43
2019-08-14 16:19:14.875000,-2.14
2019-08-14 16:19:14.890625,-7.76
2019-08-14 16:19:14.906250,-8.6
2019-08-14 16:19:14.921875,-1.64
2019-08-14 16:19:14.937500,11.55
2019-08-14 16:19:14.953125,25.82
2019-08-14 16:19:14.968750,35.34
2019-08-14 16:19:14.984375,37.06
2019-08-14 16:19:15.000000,32.24
2019-08-14 16:19:15.015625,25.6
2019-08-14 16:19:15.031250,22.33
2019-08-14 16:19:15.046875,24.93
2019-08-14 16:19:15.062500,31.51
2019-08-14 16:19:15.078125,37.11
2019-08-14 16:19:15.093750,36.67
2019-08-14 16:19:15.109375,28.12
2019-08-14 16:19:15.125000,13.95
2019-08-14 16:19:15.140625,-0.32
2019-08-14 16:19:15.156250,-9.18
2019-08-14 16:19:15.171875,-10.45
2019-08-14 16:19:15.187500,-6.39
2019-08-14 16:19:15.203125,-2.18
2019-08-14 16:19:15.218750,-2.73
2019-08-14 16:19:15.234375,-9.69
2019-08-14 16:19:15.250000,-20.5
2019-08-14 16:19:15.265625,-29.8
2019-08-14 16:19:15.281250,-32.74
2019-08-14 16:19:15.296875,-27.47
2019-08-14 16:19:15.312500,-16.36
2019-08-14 16:19:15.328125,-4.4
2019-08-14 16:19:15.343750,3.59
2019-08-14 16:19:15.359375,5.52
2019-08-14 16:19:15.375000,3.12
2019-08-14 16:19:15.390625,0.68
2019-08-14 16:19:15.406250,2.32
2019-08-14 16:19:15.421875,9.49
2019-08-14 16:19:15.437500,20.07
2019-08-14 16:19:15.453125,29.37
2019-08-14 16:19:15.468750,32.72
2019-08-14 16:19:15.484375,28.09
2019-08-14 16:19:15.500000,17.16
2019-08-14 16:19:15.515625,4.37
2019-08-14 16:19:15.531250,-5.56
2019-08-14 16:19:15.546875,-10.26
2019-08-14 16:19:15.562500,-10.74
2019-08-14 16:19:15.578125,-10.6
2019-08-14 16:19:15.593750,-13.6
2019-08-14 16:19:15.609375,-21.12
2019-08-14 16:19:15.625000,-30.98
2019-08-14 16:19:15.640625,-38.56
2019-08-14 16:19:15.656250,-39.38
2019-08-14 16:19:15.671875,-31.95
2019-08-14 16:19:15.687500,-19.06
2019-08-14 16:19:15.703125,-6.55
2019-08-14 16:19:15.718750,-0.32
2019-08-14 16:19:15.734375,-2.92
2019-08-14 16:19:15.750000,-12.1
2019-08-14 16:19:15.765625,-21.84
2019-08-14 16:19:15.781250,-25.88
2019-08-14 16:19:15.796875,-21.16
2019-08-14 16:19:15.812500,-9.65
2019-08-14 16:19:15.828125,3.1
2019-08-14 16:19:15.843750,11.34
2019-08-14 16:19:15.859375,12.58
2019-08-14 16:19:15.875000,8.93
2019-08-14 16:19:15.890625,5.67
2019-08-14 16:19:15.906250,7.59
2019-08-14 16:19:15.921875,15.97
2019-08-14 16:19:15.937500,27.67
2019-08-14 16:19:15.953125,37.06
2019-08-14 16:19:15.968750,39.42
2019-08-14 16:19:15.984375,33.86
2019-08-14 16:19:16.000000,23.9
2019-08-14 16:19:16.015625,15.33
2019-08-14 16:19:16.031250,12.84
2019-08-14 16:19:16.046875,17.21
2019-08-14 16:19:16.062500,25.07
2019-08-14 16:19:16.078125,30.71
2019-08-14 16:19:16.093750,29.56
2019-08-14 16:19:16.109375,20.56
2019-08-14 16:19:16.125000,6.92
2019-08-14 16:19:16.140625,-5.88
2019-08-14 16:19:16.156250,-13.05
2019-08-14 16:19:16.171875,-13.16
2019-08-14 16:19:16.187500,-8.71
2019-08-14 16:19:16.203125,-4.55
2019-08-14 16:19:16.218750,-4.98
2019-08-14 16:19:16.234375,-11.14
2019-08-14 16:19:16.250000,-20.37
2019-08-14 16:19:16.265625,-27.68
2019-08-14 16:19:16.281250,-28.82
2019-08-14 16:19:16.296875,-22.66
2019-08-14 16:19:16.312500,-12.01
2019-08-14 16:19:16.328125,-1.9
2019-08-14 16:19:16.343750,3.4
2019-08-14 16:19:16.359375,2.74
2019-08-14 16:19:16.375000,-1.15
2019-08-14 16:19:16.390625,-3.68
2019-08-14 16:19:16.406250,-1.18
2019-08-14 16:19:16.421875,6.61
2019-08-14 16:19:16.437500,16.28
2019-08-14 16:19:16.453125,22.87
2019-08-14 16:19:16.468750,22.87
2019-08-14 16:19:16.484375,16.52
2019-08-14 16:19:16.500000,7.78
2019-08-14 16:19:16.515625,2.2
2019-08-14 16:19:16.531250,3.53
2019-08-14 16:19:16.546875,11.51
2019-08-14 16:19:16.562500,21.91
2019-08-14 16:19:16.578125,29.05
2019-08-14 16:19:16.593750,29.15
2019-08-14 16:19:16.609375,22.42
2019-08-14 16:19:16.625000,13.05
2019-08-14 16:19:16.640625,6.53
2019-08-14 16:19:16.656250,6.44
2019-08-14 16:19:16.671875,12.2
2019-08-14 16:19:16.687500,19.55
2019-08-14 16:19:16.703125,22.97
2019-08-14 16:19:16.718750,18.92
2019-08-14 16:19:16.734375,7.91
2019-08-14 16:19:16.750000,-5.99
2019-08-14 16:19:16.765625,-17.21
2019-08-14 16:19:16.781250,-22.04
2019-08-14 16:19:16.796875,-20.38
2019-08-14 16:19:16.812500,-15.66
2019-08-14 16:19:16.828125,-12.54
2019-08-14 16:19:16.843750,-14.13
2019-08-14 16:19:16.859375,-20.3
2019-08-14 16:19:16.875000,-27.66
2019-08-14 16:19:16.890625,-32.08
2019-08-14 16:19:16.906250,-31.06
2019-08-14 16:19:16.921875,-25.45
2019-08-14 16:19:16.937500,-19.08
2019-08-14 16:19:16.953125,-16.46
2019-08-14 16:19:16.968750,-19.98
2019-08-14 16:19:16.984375,-28.39
2019-08-14 16:19:17.000000,-37.22
2019-08-14 16:19:17.015625,-41.24
2019-08-14 16:19:17.031250,-37.43
2019-08-14 16:19:17.046875,-26.62
2019-08-14 16:19:17.062500,-13.08
2019-08-14 16:19:17.078125,-1.99
2019-08-14 16:19:17.093750,3.46
2019-08-14 16:19:17.109375,3.75
2019-08-14 16:19:17.125000,2.48
2019-08-14 16:19:17.140625,4.0
2019-08-14 16:19:17.156250,10.72
2019-08-14 16:19:17.171875,21.43
2019-08-14 16:19:17.187500,32.13
2019-08-14 16:19:17.203125,38.21
2019-08-14 16:19:17.218750,37.41
2019-08-14 16:19:17.234375,30.98
2019-08-14 16:19:17.250000,22.88
2019-08-14 16:19:17.265625,17.36
2019-08-14 16:19:17.281250,16.27
2019-08-14 16:19:17.296875,17.97
2019-08-14 16:19:17.312500,18.23
2019-08-14 16:19:17.328125,13.14
2019-08-14 16:19:17.343750,1.65
2019-08-14 16:19:17.359375,-13.33
2019-08-14 16:19:17.375000,-26.21
2019-08-14 16:19:17.390625,-31.87
2019-08-14 16:19:17.406250,-28.66
2019-08-14 16:19:17.421875,-19.49
2019-08-14 16:19:17.437500,-10.53
2019-08-14 16:19:17.453125,-7.76
2019-08-14 16:19:17.468750,-13.5
2019-08-14 16:19:17.484375,-25.1
2019-08-14 16:19:17.500000,-36.13
2019-08-14 16:19:17.515625,-39.94
2019-08-14 16:19:17.531250,-33.39
2019-08-14 16:19:17.546875,-18.38
2019-08-14 16:19:17.562500,-0.82
2019-08-14 16:19:17.578125,12.92
2019-08-14 16:19:17.593750,19.36
2019-08-14 16:19:17.609375,19.5
2019-08-14 16:19:17.625000,17.54
2019-08-14 16:19:17.640625,18.06
2019-08-14 16:19:17.656250,23.03
2019-08-14 16:19:17.671875,30.73
2019-08-14 16:19:17.687500,37.14
2019-08-14 16:19:17.703125,38.48
2019-08-14 16:19:17.718750,33.68
2019-08-14 16:19:17.734375,25.09
2019-08-14 16:19:17.750000,17.08
2019-08-14 16:19:17.765625,13.3
2019-08-14 16:19:17.781250,14.45
2019-08-14 16:19:17.796875,17.7
2019-08-14 16:19:17.812500,18.33
2019-08-14 16:19:17.828125,12.55
2019-08-14 16:19:17.843750,-0.12
2019-08-14 16:19:17.859375,-15.99
2019-08-14 16:19:17.875000,-29.15
2019-08-14 16:19:17.890625,-34.53
2019-08-14 16:19:17.906250,-30.83
2019-08-14 16:19:17.921875,-21.31
2019-08-14 16:19:17.937500,-12.2
2019-08-14 16:19:17.953125,-9.08
2019-08-14 16:19:17.968750,-13.69
2019-08-14 16:19:17.984375,-22.83
2019-08-14 16:19:18.000000,-30.23
2019-08-14 16:19:18.015625,-30.02
2019-08-14 16:19:18.031250,-20.27
2019-08-14 16:19:18.046875,-4.09
2019-08-14 16:19:18.062500,12.04
2019-08-14 16:19:18.078125,21.95
2019-08-14 16:19:18.093750,23.14
2019-08-14 16:19:18.109375,17.9
2019-08-14 16:19:18.125000,11.72
2019-08-14 16:19:18.140625,9.85
2019-08-14 16:19:18.156250,14.28
2019-08-14 16:19:18.171875,22.67
2019-08-14 16:19:18.187500,30.01
2019-08-14 16:19:18.203125,31.81
2019-08-14 16:19:18.218750,26.68
2019-08-14 16:19:18.234375,16.98
2019-08-14 16:19:18.250000,7.29
2019-08-14 16:19:18.265625,1.42
2019-08-14 16:19:18.281250,0.43
2019-08-14 16:19:18.296875,2.18
2019-08-14 16:19:18.312500,2.92
2019-08-14 16:19:18.328125,-0.03
2019-08-14 16:19:18.343750,-6.63
2019-08-14 16:19:18.359375,-13.8
2019-08-14 16:19:18.375000,-17.13
2019-08-14 16:19:18.390625,-13.45
2019-08-14 16:19:18.406250,-2.78
2019-08-14 16:19:18.421875,11.35
2019-08-14 16:19:18.437500,23.48
2019-08-14 16:19:18.453125,29.08
2019-08-14 16:19:18.468750,26.71
2019-08-14 16:19:18.484375,18.73
2019-08-14 16:19:18.500000,9.75
2019-08-14 16:19:18.515625,3.91
2019-08-14 16:19:18.531250,2.49
2019-08-14 16:19:18.546875,3.23
2019-08-14 16:19:18.562500,1.98
2019-08-14 16:19:18.578125,-4.49
2019-08-14 16:19:18.593750,-16.23
2019-08-14 16:19:18.609375,-29.58
2019-08-14 16:19:18.625000,-39.35
2019-08-14 16:19:18.640625,-41.73
2019-08-14 16:19:18.656250,-36.76
2019-08-14 16:19:18.671875,-28.38
2019-08-14 16:19:18.687500,-22.25
2019-08-14 16:19:18.703125,-22.26
2019-08-14 16:19:18.718750,-28.15
2019-08-14 16:19:18.734375,-35.51
2019-08-14 16:19:18.750000,-38.12
2019-08-14 16:19:18.765625,-31.82
2019-08-14 16:19:18.781250,-16.87
2019-08-14 16:19:18.796875,1.66
2019-08-14 16:19:18.812500,16.55
2019-08-14 16:19:18.828125,22.46
2019-08-14 16:19:18.843750,18.72
2019-08-14 16:19:18.859375,9.69
2019-08-14 16:19:18.875000,2.16
2019-08-14 16:19:18.890625,1.4
2019-08-14 16:19:18.906250,8.36
2019-08-14 16:19:18.921875,19.33
2019-08-14 16:19:18.937500,28.31
2019-08-14 16:19:18.953125,30.83
2019-08-14 16:19:18.968750,26.58
2019-08-14 16:19:18.984375,19.37
2019-08-14 16:19:19.000000,14.93
2019-08-14 16:19:19.015625,17.14
2019-08-14 16:19:19.031250,25.7
2019-08-14 16:19:19.046875,35.97
2019-08-14 16:19:19.062500,41.81
2019-08-14 16:19:19.078125,39.03
2019-08-14 16:19:19.093750,27.84
2019-08-14 16:19:19.109375,13.02
2019-08-14 16:19:19.125000,0.93
2019-08-14 16:19:19.140625,-3.66
2019-08-14 16:19:19.156250,-0.28
2019-08-14 16:19:19.171875,7.18
2019-08-14 16:19:19.187500,13.01
2019-08-14 16:19:19.203125,13.03
2019-08-14 16:19:19.218750,6.9
2019-08-14 16:19:19.234375,-1.84
2019-08-14 16:19:19.250000,-8.19
2019-08-14 16:19:19.265625,-8.97
2019-08-14 16:19:19.281250,-4.84
2019-08-14 16:19:19.296875,-0.09
2019-08-14 16:19:19.312500,0.03
2019-08-14 16:19:19.328125,-7.33
2019-08-14 16:19:19.343750,-20.75
2019-08-14 16:19:19.359375,-34.82
2019-08-14 16:19:19.375000,-43.22
2019-08-14 16:19:19.390625,-42.28
2019-08-14 16:19:19.406250,-33.1
2019-08-14 16:19:19.421875,-21.1
2019-08-14 16:19:19.437500,-13.0
2019-08-14 16:19:19.453125,-12.98
2019-08-14 16:19:19.468750,-20.21
2019-08-14 16:19:19.484375,-29.43
2019-08-14 16:19:19.500000,-33.77
2019-08-14 16:19:19.515625,-28.88
2019-08-14 16:19:19.531250,-15.35
2019-08-14 16:19:19.546875,1.44
2019-08-14 16:19:19.562500,14.42
2019-08-14 16:19:19.578125,18.87
2019-08-14 16:19:19.593750,15.07
2019-08-14 16:19:19.609375,7.98
2019-08-14 16:19:19.625000,4.06
2019-08-14 16:19:19.640625,7.39
2019-08-14 16:19:19.656250,17.17
2019-08-14 16:19:19.671875,28.23
2019-08-14 16:19:19.687500,34.3
2019-08-14 16:19:19.703125,32.02
2019-08-14 16:19:19.718750,22.98
2019-08-14 16:19:19.734375,12.78
2019-08-14 16:19:19.750000,7.5
2019-08-14 16:19:19.765625,9.91
2019-08-14 16:19:19.781250,17.77
2019-08-14 16:19:19.796875,25.22
2019-08-14 16:19:19.812500,26.52
2019-08-14 16:19:19.828125,19.38
2019-08-14 16:19:19.843750,6.38
2019-08-14 16:19:19.859375,-6.61
2019-08-14 16:19:19.875000,-13.96
2019-08-14 16:19:19.890625,-13.47
2019-08-14 16:19:19.906250,-7.39
2019-08-14 16:19:19.921875,-0.91
2019-08-14 16:19:19.937500,0.84
2019-08-14 16:19:19.953125,-4.17
2019-08-14 16:19:19.968750,-13.94
2019-08-14 16:19:19.984375,-23.78
2019-08-14 16:19:20.000000,-29.06
2019-08-14 16:19:20.015625,-27.92
2019-08-14 16:19:20.031250,-22.24
2019-08-14 16:19:20.046875,-16.74
2019-08-14 16:19:20.062500,-15.99
2019-08-14 16:19:20.078125,-21.79
2019-08-14 16:19:20.093750,-31.79
2019-08-14 16:19:20.109375,-40.72
2019-08-14 16:19:20.125000,-43.35
2019-08-14 16:19:20.140625,-37.58
2019-08-14 16:19:20.156250,-25.83
2019-08-14 16:19:20.171875,-13.76
2019-08-14 16:19:20.187500,-7.11
2019-08-14 16:19:20.203125,-8.34
2019-08-14 16:19:20.218750,-15.26
2019-08-14 16:19:20.234375,-22.34
2019-08-14 16:19:20.250000,-24.21
2019-08-14 16:19:20.265625,-18.79
2019-08-14 16:19:20.281250,-8.97
2019-08-14 16:19:20.296875,-0.81
2019-08-14 16:19:20.312500,0.24
2019-08-14 16:19:20.328125,-7.69
2019-08-14 16:19:20.343750,-21.46
2019-08-14 16:19:20.359375,-35.04
2019-08-14 16:19:20.375000,-43.03
2019-08-14 16:19:20.390625,-44.07
2019-08-14 16:19:20.406250,-41.51
2019-08-14 16:19:20.421875,-41.46
2019-08-14 16:19:20.437500,-49.01
2019-08-14 16:19:20.453125,-64.88
2019-08-14 16:19:20.468750,-85.19
2019-08-14 16:19:20.484375,-103.42
2019-08-14 16:19:20.500000,-114.21
2019-08-14 16:19:20.515625,-116.0
2019-08-14 16:19:20.531250,-111.52
2019-08-14 16:19:20.546875,-105.75
2019-08-14 16:19:20.562500,-102.86
2019-08-14 16:19:20.578125,-103.57
2019-08-14 16:19:20.593750,-104.78
2019-08-14 16:19:20.609375,-101.86
2019-08-14 16:19:20.625000,-91.13
2019-08-14 16:19:20.640625,-71.86
2019-08-14 16:19:20.656250,-46.03
2019-08-14 16:19:20.671875,-16.77
2019-08-14 16:19:20.687500,13.76
2019-08-14 16:19:20.703125,45.12
2019-08-14 16:19:20.718750,78.66
2019-08-14 16:19:20.734375,117.73
2019-08-14 16:19:20.750000,163.03
2019-08-14 16:19:20.765625,211.74
2019-08-14 16:19:20.781250,257.01
2019-08-14 16:19:20.796875,290.34
2019-08-14 16:19:20.812500,305.57
2019-08-14 16:19:20.828125,304.17
2019-08-14 16:19:20.843750,292.75
2019-08-14 16:19:20.859375,279.9
2019-08-14 16:19:20.875000,272.85
2019-08-14 16:19:20.890625,274.06
2019-08-14 16:19:20.906250,280.73
2019-08-14 16:19:20.921875,285.27
2019-08-14 16:19:20.937500,278.38
2019-08-14 16:19:20.953125,253.61
2019-08-14 16:19:20.968750,209.96
2019-08-14 16:19:20.984375,151.93
2019-08-14 16:19:21.000000,87.54
2019-08-14 16:19:21.015625,24.8
2019-08-14 16:19:21.031250,-31.43
2019-08-14 16:19:21.046875,-79.76
2019-08-14 16:19:21.062500,-120.7
2019-08-14 16:19:21.078125,-154.76
2019-08-14 16:19:21.093750,-181.36
2019-08-14 16:19:21.109375,-199.35
2019-08-14 16:19:21.125000,-208.58
2019-08-14 16:19:21.140625,-210.53
2019-08-14 16:19:21.156250,-208.11
2019-08-14 16:19:21.171875,-205.12
2019-08-14 16:19:21.187500,-204.63
2019-08-14 16:19:21.203125,-207.9
2019-08-14 16:19:21.218750,-214.54
2019-08-14 16:19:21.234375,-222.66
2019-08-14 16:19:21.250000,-230.21
2019-08-14 16:19:21.265625,-236.03
2019-08-14 16:19:21.281250,-240.29
2019-08-14 16:19:21.296875,-244.26
2019-08-14 16:19:21.312500,-249.68
2019-08-14 16:19:21.328125,-257.8
2019-08-14 16:19:21.343750,-268.58
2019-08-14 16:19:21.359375,-281.04
2019-08-14 16:19:21.375000,-293.22
2019-08-14 16:19:21.390625,-302.92
2019-08-14 16:19:21.406250,-308.3
2019-08-14 16:19:21.421875,-308.06
2019-08-14 16:19:21.437500,-301.2
2019-08-14 16:19:21.453125,-286.82
2019-08-14 16:19:21.468750,-265.57
2019-08-14 16:19:21.484375,-235.89
2019-08-14 16:19:21.500000,-196.18
2019-08-14 16:19:21.515625,-145.26
2019-08-14 16:19:21.531250,-83.39
2019-08-14 16:19:21.546875,-12.47
2019-08-14 16:19:21.562500,64.06
2019-08-14 16:19:21.578125,141.73
2019-08-14 16:19:21.593750,215.81
2019-08-14 16:19:21.609375,281.95
2019-08-14 16:19:21.625000,337.12
2019-08-14 16:19:21.640625,379.2
2019-08-14 16:19:21.656250,407.69
2019-08-14 16:19:21.671875,423.04
2019-08-14 16:19:21.687500,426.58
2019-08-14 16:19:21.703125,420.34
2019-08-14 16:19:21.718750,406.97
2019-08-14 16:19:21.734375,389.31
2019-08-14 16:19:21.750000,370.11
2019-08-14 16:19:21.765625,351.68
2019-08-14 16:19:21.781250,335.07
2019-08-14 16:19:21.796875,320.53
2019-08-14 16:19:21.812500,306.6
2019-08-14 16:19:21.828125,290.76
2019-08-14 16:19:21.843750,269.98
2019-08-14 16:19:21.859375,241.72
2019-08-14 16:19:21.875000,204.28
2019-08-14 16:19:21.890625,157.08
2019-08-14 16:19:21.906250,100.58
2019-08-14 16:19:21.921875,33.68
2019-08-14 16:19:21.937500,-41.87
2019-08-14 16:19:21.953125,-123.48
2019-08-14 16:19:21.968750,-207.7
2019-08-14 16:19:21.984375,-290.98
2019-08-14 16:19:22.000000,-369.05
2019-08-14 16:19:22.015625,-437.2
2019-08-14 16:19:22.031250,-490.98
2019-08-14 16:19:22.046875,-526.65
2019-08-14 16:19:22.062500,-543.7
2019-08-14 16:19:22.078125,-542.09
2019-08-14 16:19:22.093750,-523.2
2019-08-14 16:19:22.109375,-489.03
2019-08-14 16:19:22.125000,-442.14
2019-08-14 16:19:22.140625,-384.13
2019-08-14 16:19:22.156250,-315.79
2019-08-14 16:19:22.171875,-237.69
2019-08-14 16:19:22.187500,-150.56
2019-08-14 16:19:22.203125,-55.42
2019-08-14 16:19:22.218750,47.24
2019-08-14 16:19:22.234375,154.89
2019-08-14 16:19:22.250000,263.71
2019-08-14 16:19:22.265625,367.33
2019-08-14 16:19:22.281250,457.43
2019-08-14 16:19:22.296875,523.88
2019-08-14 16:19:22.312500,556.63
2019-08-14 16:19:22.328125,549.14
2019-08-14 16:19:22.343750,501.41
2019-08-14 16:19:22.359375,420.94
2019-08-14 16:19:22.375000,319.7
2019-08-14 16:19:22.390625,214.28
2019-08-14 16:19:22.406250,113.08
2019-08-14 16:19:22.421875,19.12
2019-08-14 16:19:22.437500,-66.89
2019-08-14 16:19:22.453125,-143.56
2019-08-14 16:19:22.468750,-207.11
2019-08-14 16:19:22.484375,-252.83
2019-08-14 16:19:22.500000,-277.63
2019-08-14 16:19:22.515625,-282.6
2019-08-14 16:19:22.531250,-272.89
2019-08-14 16:19:22.546875,-256.07
2019-08-14 16:19:22.562500,-237.6
2019-08-14 16:19:22.578125,-218.84
2019-08-14 16:19:22.593750,-198.15
2019-08-14 16:19:22.609375,-171.47
2019-08-14 16:19:22.625000,-135.12
2019-08-14 16:19:22.640625,-87.6
2019-08-14 16:19:22.656250,-29.98
2019-08-14 16:19:22.671875,35.41
2019-08-14 16:19:22.687500,106.09
2019-08-14 16:19:22.703125,181.2
2019-08-14 16:19:22.718750,260.6
2019-08-14 16:19:22.734375,343.23
2019-08-14 16:19:22.750000,425.53
2019-08-14 16:19:22.765625,500.9
2019-08-14 16:19:22.781250,561.13
2019-08-14 16:19:22.796875,599.45
2019-08-14 16:19:22.812500,613.37
2019-08-14 16:19:22.828125,605.73
2019-08-14 16:19:22.843750,584.09
2019-08-14 16:19:22.859375,557.75
2019-08-14 16:19:22.875000,534.35
2019-08-14 16:19:22.890625,517.64
2019-08-14 16:19:22.906250,507.02
2019-08-14 16:19:22.921875,498.81
2019-08-14 16:19:22.937500,488.24
2019-08-14 16:19:22.953125,470.74
2019-08-14 16:19:22.968750,442.63
2019-08-14 16:19:22.984375,401.35
2019-08-14 16:19:23.000000,346.24
2019-08-14 16:19:23.015625,279.11
2019-08-14 16:19:23.031250,204.21
2019-08-14 16:19:23.046875,127.42
2019-08-14 16:19:23.062500,54.42
2019-08-14 16:19:23.078125,-10.79
2019-08-14 16:19:23.093750,-67.15
2019-08-14 16:19:23.109375,-116.35
2019-08-14 16:19:23.125000,-162.36
2019-08-14 16:19:23.140625,-209.87
2019-08-14 16:19:23.156250,-263.04
2019-08-14 16:19:23.171875,-324.13
2019-08-14 16:19:23.187500,-392.58
2019-08-14 16:19:23.203125,-464.47
2019-08-14 16:19:23.218750,-532.78
2019-08-14 16:19:23.234375,-590.05
2019-08-14 16:19:23.250000,-627.86
2019-08-14 16:19:23.265625,-642.82
2019-08-14 16:19:23.281250,-637.7
2019-08-14 16:19:23.296875,-620.45
2019-08-14 16:19:23.312500,-600.37
2019-08-14 16:19:23.328125,-584.22
2019-08-14 16:19:23.343750,-573.92
2019-08-14 16:19:23.359375,-566.8
2019-08-14 16:19:23.375000,-559.03
2019-08-14 16:19:23.390625,-547.89
2019-08-14 16:19:23.406250,-533.56
2019-08-14 16:19:23.421875,-517.52
2019-08-14 16:19:23.437500,-500.94
2019-08-14 16:19:23.453125,-483.12
2019-08-14 16:19:23.468750,-461.76
2019-08-14 16:19:23.484375,-436.26
2019-08-14 16:19:23.500000,-403.46
2019-08-14 16:19:23.515625,-360.68
2019-08-14 16:19:23.531250,-306.53
2019-08-14 16:19:23.546875,-241.69
2019-08-14 16:19:23.562500,-167.79
2019-08-14 16:19:23.578125,-87.32
2019-08-14 16:19:23.593750,-3.13
2019-08-14 16:19:23.609375,81.09
2019-08-14 16:19:23.625000,161.17
2019-08-14 16:19:23.640625,233.71
2019-08-14 16:19:23.656250,295.87
2019-08-14 16:19:23.671875,346.08
2019-08-14 16:19:23.687500,383.33
2019-08-14 16:19:23.703125,407.43
2019-08-14 16:19:23.718750,416.79
2019-08-14 16:19:23.734375,410.38
2019-08-14 16:19:23.750000,387.71
2019-08-14 16:19:23.765625,347.87
2019-08-14 16:19:23.781250,293.16
2019-08-14 16:19:23.796875,228.52
2019-08-14 16:19:23.812500,163.88
2019-08-14 16:19:23.828125,107.96
2019-08-14 16:19:23.843750,68.03
2019-08-14 16:19:23.859375,47.97
2019-08-14 16:19:23.875000,48.88
2019-08-14 16:19:23.890625,67.73
2019-08-14 16:19:23.906250,98.12
2019-08-14 16:19:23.921875,132.7
2019-08-14 16:19:23.937500,164.01
2019-08-14 16:19:23.953125,188.09
2019-08-14 16:19:23.968750,204.65
2019-08-14 16:19:23.984375,216.63
2019-08-14 16:19:24.000000,227.45
2019-08-14 16:19:24.015625,238.84
2019-08-14 16:19:24.031250,249.43
2019-08-14 16:19:24.046875,256.04
2019-08-14 16:19:24.062500,256.27
2019-08-14 16:19:24.078125,249.6
2019-08-14 16:19:24.093750,237.54
2019-08-14 16:19:24.109375,221.94
2019-08-14 16:19:24.125000,204.03
2019-08-14 16:19:24.140625,183.88
2019-08-14 16:19:24.156250,161.17
2019-08-14 16:19:24.171875,135.88
2019-08-14 16:19:24.187500,109.13
2019-08-14 16:19:24.203125,83.22
2019-08-14 16:19:24.218750,60.8
2019-08-14 16:19:24.234375,43.84
2019-08-14 16:19:24.250000,32.56
2019-08-14 16:19:24.265625,25.8
2019-08-14 16:19:24.281250,21.58
2019-08-14 16:19:24.296875,18.13
2019-08-14 16:19:24.312500,14.28
2019-08-14 16:19:24.328125,9.93
2019-08-14 16:19:24.343750,6.04
2019-08-14 16:19:24.359375,3.9
2019-08-14 16:19:24.375000,4.53
2019-08-14 16:19:24.390625,7.92
2019-08-14 16:19:24.406250,13.2
2019-08-14 16:19:24.421875,19.01
2019-08-14 16:19:24.437500,24.14
2019-08-14 16:19:24.453125,27.61
2019-08-14 16:19:24.468750,28.92
2019-08-14 16:19:24.484375,28.04
2019-08-14 16:19:24.500000,25.1
2019-08-14 16:19:24.515625,20.73
2019-08-14 16:19:24.531250,14.14
2019-08-14 16:19:24.546875,4.06
2019-08-14 16:19:24.562500,-10.57
2019-08-14 16:19:24.578125,-30.13
2019-08-14 16:19:24.593750,-54.59
2019-08-14 16:19:24.609375,-83.31
2019-08-14 16:19:24.625000,-115.07
2019-08-14 16:19:24.640625,-148.35
2019-08-14 16:19:24.656250,-181.5
2019-08-14 16:19:24.671875,-211.67
2019-08-14 16:19:24.687500,-236.95
2019-08-14 16:19:24.703125,-257.68
2019-08-14 16:19:24.718750,-272.78
2019-08-14 16:19:24.734375,-281.16
2019-08-14 16:19:24.750000,-281.98
2019-08-14 16:19:24.765625,-274.88
2019-08-14 16:19:24.781250,-260.24
2019-08-14 16:19:24.796875,-239.23
2019-08-14 16:19:24.812500,-213.6
2019-08-14 16:19:24.828125,-185.57
2019-08-14 16:19:24.843750,-157.26
2019-08-14 16:19:24.859375,-130.14
2019-08-14 16:19:24.875000,-105.28
2019-08-14 16:19:24.890625,-83.15
2019-08-14 16:19:24.906250,-63.66
2019-08-14 16:19:24.921875,-46.58
2019-08-14 16:19:24.937500,-31.79
2019-08-14 16:19:24.953125,-19.05
2019-08-14 16:19:24.968750,-8.16
2019-08-14 16:19:24.984375,1.46
2019-08-14 16:19:25.000000,11.09
2019-08-14 16:19:25.015625,22.39
2019-08-14 16:19:25.031250,37.32
2019-08-14 16:19:25.046875,58.3
2019-08-14 16:19:25.062500,85.72
2019-08-14 16:19:25.078125,117.94
2019-08-14 16:19:25.093750,152.13
2019-08-14 16:19:25.109375,184.65
2019-08-14 16:19:25.125000,211.99
2019-08-14 16:19:25.140625,231.89
2019-08-14 16:19:25.156250,243.41
2019-08-14 16:19:25.171875,246.99
2019-08-14 16:19:25.187500,243.74
2019-08-14 16:19:25.203125,235.95
2019-08-14 16:19:25.218750,223.38
2019-08-14 16:19:25.234375,204.7
2019-08-14 16:19:25.250000,178.34
2019-08-14 16:19:25.265625,143.03
2019-08-14 16:19:25.281250,98.32
2019-08-14 16:19:25.296875,44.19
2019-08-14 16:19:25.312500,-18.65
2019-08-14 16:19:25.328125,-86.63
2019-08-14 16:19:25.343750,-153.75
2019-08-14 16:19:25.359375,-212.38
2019-08-14 16:19:25.375000,-254.21
2019-08-14 16:19:25.390625,-273.19
2019-08-14 16:19:25.406250,-268.1
2019-08-14 16:19:25.421875,-243.49
2019-08-14 16:19:25.437500,-208.53
2019-08-14 16:19:25.453125,-173.48
2019-08-14 16:19:25.468750,-145.82
2019-08-14 16:19:25.484375,-128.72
2019-08-14 16:19:25.500000,-121.43
2019-08-14 16:19:25.515625,-120.86
2019-08-14 16:19:25.531250,-124.03
2019-08-14 16:19:25.546875,-129.34
2019-08-14 16:19:25.562500,-135.94
2019-08-14 16:19:25.578125,-143.14
2019-08-14 16:19:25.593750,-149.25
2019-08-14 16:19:25.609375,-151.64
2019-08-14 16:19:25.625000,-148.37
2019-08-14 16:19:25.640625,-139.4
2019-08-14 16:19:25.656250,-126.02
2019-08-14 16:19:25.671875,-110.14
2019-08-14 16:19:25.687500,-94.64
2019-08-14 16:19:25.703125,-79.55
2019-08-14 16:19:25.718750,-63.74
2019-08-14 16:19:25.734375,-45.51
2019-08-14 16:19:25.750000,-23.24
2019-08-14 16:19:25.765625,3.12
2019-08-14 16:19:25.781250,31.55
2019-08-14 16:19:25.796875,59.48
2019-08-14 16:19:25.812500,84.37
2019-08-14 16:19:25.828125,104.68
2019-08-14 16:19:25.843750,120.43
2019-08-14 16:19:25.859375,132.54
2019-08-14 16:19:25.875000,142.87
2019-08-14 16:19:25.890625,154.46
2019-08-14 16:19:25.906250,170.61
2019-08-14 16:19:25.921875,193.64
2019-08-14 16:19:25.937500,224.64
2019-08-14 16:19:25.953125,261.86
2019-08-14 16:19:25.968750,300.12
2019-08-14 16:19:25.984375,331.73
2019-08-14 16:19:26.000000,348.93
2019-08-14 16:19:26.015625,344.56
2019-08-14 16:19:26.031250,318.96
2019-08-14 16:19:26.046875,280.82
2019-08-14 16:19:26.062500,237.7
2019-08-14 16:19:26.078125,194.57
2019-08-14 16:19:26.093750,153.01
2019-08-14 16:19:26.109375,112.61
2019-08-14 16:19:26.125000,73.47
2019-08-14 16:19:26.140625,37.61
2019-08-14 16:19:26.156250,8.43
2019-08-14 16:19:26.171875,-10.96
2019-08-14 16:19:26.187500,-20.33
2019-08-14 16:19:26.203125,-24.4
2019-08-14 16:19:26.218750,-30.56
2019-08-14 16:19:26.234375,-45.44
2019-08-14 16:19:26.250000,-71.84
2019-08-14 16:19:26.265625,-107.81
2019-08-14 16:19:26.281250,-148.54
2019-08-14 16:19:26.296875,-188.77
2019-08-14 16:19:26.312500,-224.45
2019-08-14 16:19:26.328125,-253.57
2019-08-14 16:19:26.343750,-276.3
2019-08-14 16:19:26.359375,-292.69
2019-08-14 16:19:26.375000,-301.56
2019-08-14 16:19:26.390625,-301.17
2019-08-14 16:19:26.406250,-290.87
2019-08-14 16:19:26.421875,-272.69
2019-08-14 16:19:26.437500,-252.04
2019-08-14 16:19:26.453125,-237.4
2019-08-14 16:19:26.468750,-233.83
2019-08-14 16:19:26.484375,-242.1
2019-08-14 16:19:26.500000,-257.38
2019-08-14 16:19:26.515625,-270.21
2019-08-14 16:19:26.531250,-270.1
2019-08-14 16:19:26.546875,-249.68
2019-08-14 16:19:26.562500,-205.5
2019-08-14 16:19:26.578125,-141.68
2019-08-14 16:19:26.593750,-66.5
2019-08-14 16:19:26.609375,11.53
2019-08-14 16:19:26.625000,85.67
2019-08-14 16:19:26.640625,151.95
2019-08-14 16:19:26.656250,208.66
2019-08-14 16:19:26.671875,254.77
2019-08-14 16:19:26.687500,289.29
2019-08-14 16:19:26.703125,311.49
2019-08-14 16:19:26.718750,321.5
2019-08-14 16:19:26.734375,321.22
2019-08-14 16:19:26.750000,314.09
2019-08-14 16:19:26.765625,303.83
2019-08-14 16:19:26.781250,293.09
2019-08-14 16:19:26.796875,283.25
2019-08-14 16:19:26.812500,274.14
2019-08-14 16:19:26.828125,264.4
2019-08-14 16:19:26.843750,252.4
2019-08-14 16:19:26.859375,236.74
2019-08-14 16:19:26.875000,217.2
2019-08-14 16:19:26.890625,194.84
2019-08-14 16:19:26.906250,172.2
2019-08-14 16:19:26.921875,149.93
2019-08-14 16:19:26.937500,128.25
2019-08-14 16:19:26.953125,106.91
2019-08-14 16:19:26.968750,85.48
2019-08-14 16:19:26.984375,63.71
2019-08-14 16:19:27.000000,41.78
2019-08-14 16:19:27.015625,20.55
2019-08-14 16:19:27.031250,1.41
2019-08-14 16:19:27.046875,-14.26
2019-08-14 16:19:27.062500,-25.83
2019-08-14 16:19:27.078125,-33.08
2019-08-14 16:19:27.093750,-36.34
2019-08-14 16:19:27.109375,-36.38
2019-08-14 16:19:27.125000,-34.07
2019-08-14 16:19:27.140625,-30.2
2019-08-14 16:19:27.156250,-25.26
2019-08-14 16:19:27.171875,-19.39
2019-08-14 16:19:27.187500,-12.65
2019-08-14 16:19:27.203125,-5.42
2019-08-14 16:19:27.218750,2.06
2019-08-14 16:19:27.234375,9.53
2019-08-14 16:19:27.250000,16.75
2019-08-14 16:19:27.265625,23.53
2019-08-14 16:19:27.281250,29.8
2019-08-14 16:19:27.296875,35.62
2019-08-14 16:19:27.312500,41.14
2019-08-14 16:19:27.328125,46.58
2019-08-14 16:19:27.343750,51.77
2019-08-14 16:19:27.359375,56.69
2019-08-14 16:19:27.375000,61.29
2019-08-14 16:19:27.390625,65.46
2019-08-14 16:19:27.406250,69.01
2019-08-14 16:19:27.421875,71.6
2019-08-14 16:19:27.437500,72.76
2019-08-14 16:19:27.453125,71.77
2019-08-14 16:19:27.468750,69.76
2019-08-14 16:19:27.484375,66.99
2019-08-14 16:19:27.500000,63.67
2019-08-14 16:19:27.515625,59.92
2019-08-14 16:19:27.531250,55.81
2019-08-14 16:19:27.546875,51.35
2019-08-14 16:19:27.562500,46.59
2019-08-14 16:19:27.578125,41.56
2019-08-14 16:19:27.593750,36.48
2019-08-14 16:19:27.609375,31.61
2019-08-14 16:19:27.625000,27.09
2019-08-14 16:19:27.640625,23.29
2019-08-14 16:19:27.656250,20.61
2019-08-14 16:19:27.671875,19.51
2019-08-14 16:19:27.687500,20.25
2019-08-14 16:19:27.703125,22.88
2019-08-14 16:19:27.718750,27.16
2019-08-14 16:19:27.734375,32.61
2019-08-14 16:19:27.750000,38.66
2019-08-14 16:19:27.765625,44.49
2019-08-14 16:19:27.781250,49.43
2019-08-14 16:19:27.796875,53.02
2019-08-14 16:19:27.812500,55.0
2019-08-14 16:19:27.828125,55.15
2019-08-14 16:19:27.843750,53.28
2019-08-14 16:19:27.859375,49.19
2019-08-14 16:19:27.875000,42.79
2019-08-14 16:19:27.890625,34.16
2019-08-14 16:19:27.906250,23.63
2019-08-14 16:19:27.921875,11.95
2019-08-14 16:19:27.937500,0.12
2019-08-14 16:19:27.953125,-10.85
2019-08-14 16:19:27.968750,-20.35
2019-08-14 16:19:27.984375,-28.41
2019-08-14 16:19:28.000000,-35.68
2019-08-14 16:19:28.015625,-43.22
2019-08-14 16:19:28.031250,-51.98
2019-08-14 16:19:28.046875,-62.5
2019-08-14 16:19:28.062500,-74.55
2019-08-14 16:19:28.078125,-87.38
2019-08-14 16:19:28.093750,-100.01
2019-08-14 16:19:28.109375,-111.94
2019-08-14 16:19:28.125000,-123.44
2019-08-14 16:19:28.140625,-135.68
2019-08-14 16:19:28.156250,-150.2
2019-08-14 16:19:28.171875,-168.33
2019-08-14 16:19:28.187500,-190.48
2019-08-14 16:19:28.203125,-215.88
2019-08-14 16:19:28.218750,-243.0
2019-08-14 16:19:28.234375,-270.08
2019-08-14 16:19:28.250000,-295.9
2019-08-14 16:19:28.265625,-320.29
2019-08-14 16:19:28.281250,-344.02
2019-08-14 16:19:28.296875,-368.58
2019-08-14 16:19:28.312500,-395.9
2019-08-14 16:19:28.328125,-428.15
2019-08-14 16:19:28.343750,-467.21
2019-08-14 16:19:28.359375,-513.64
2019-08-14 16:19:28.375000,-565.25
2019-08-14 16:19:28.390625,-616.47
2019-08-14 16:19:28.406250,-658.84
2019-08-14 16:19:28.421875,-683.42
2019-08-14 16:19:28.437500,-683.97
2019-08-14 16:19:28.453125,-659.43
2019-08-14 16:19:28.468750,-614.4
2019-08-14 16:19:28.484375,-557.19
2019-08-14 16:19:28.500000,-496.55
2019-08-14 16:19:28.515625,-438.71
2019-08-14 16:19:28.531250,-386.24
2019-08-14 16:19:28.546875,-338.91
2019-08-14 16:19:28.562500,-295.56
2019-08-14 16:19:28.578125,-255.71
2019-08-14 16:19:28.593750,-219.87
2019-08-14 16:19:28.609375,-188.76
2019-08-14 16:19:28.625000,-162.29
2019-08-14 16:19:28.640625,-139.2
2019-08-14 16:19:28.656250,-117.49
2019-08-14 16:19:28.671875,-95.43
2019-08-14 16:19:28.687500,-72.36
2019-08-14 16:19:28.703125,-48.86
2019-08-14 16:19:28.718750,-26.46
2019-08-14 16:19:28.734375,-6.77
2019-08-14 16:19:28.750000,9.33
2019-08-14 16:19:28.765625,21.94
2019-08-14 16:19:28.781250,32.18
2019-08-14 16:19:28.796875,41.63
2019-08-14 16:19:28.812500,51.78
2019-08-14 16:19:28.828125,63.43
2019-08-14 16:19:28.843750,76.48
2019-08-14 16:19:28.859375,90.08
2019-08-14 16:19:28.875000,102.97
2019-08-14 16:19:28.890625,114.05
2019-08-14 16:19:28.906250,122.88
2019-08-14 16:19:28.921875,129.82
2019-08-14 16:19:28.937500,135.99
2019-08-14 16:19:28.953125,142.85
2019-08-14 16:19:28.968750,151.64
2019-08-14 16:19:28.984375,162.86
2019-08-14 16:19:29.000000,176.09
2019-08-14 16:19:29.015625,190.1
2019-08-14 16:19:29.031250,203.34
2019-08-14 16:19:29.046875,214.69
2019-08-14 16:19:29.062500,223.99
2019-08-14 16:19:29.078125,232.03
2019-08-14 16:19:29.093750,240.28
2019-08-14 16:19:29.109375,250.04
2019-08-14 16:19:29.125000,261.93
2019-08-14 16:19:29.140625,275.87
2019-08-14 16:19:29.156250,291.56
2019-08-14 16:19:29.171875,308.98
2019-08-14 16:19:29.187500,328.35
2019-08-14 16:19:29.203125,349.17
2019-08-14 16:19:29.218750,369.33
2019-08-14 16:19:29.234375,384.81
2019-08-14 16:19:29.250000,391.0
2019-08-14 16:19:29.265625,384.85
2019-08-14 16:19:29.281250,366.8
2019-08-14 16:19:29.296875,340.95
2019-08-14 16:19:29.312500,313.21
2019-08-14 16:19:29.328125,288.28
2019-08-14 16:19:29.343750,267.46
2019-08-14 16:19:29.359375,248.6
2019-08-14 16:19:29.375000,228.21
2019-08-14 16:19:29.390625,204.4
2019-08-14 16:19:29.406250,178.56
2019-08-14 16:19:29.421875,154.77
2019-08-14 16:19:29.437500,137.27
2019-08-14 16:19:29.453125,127.59
2019-08-14 16:19:29.468750,123.37
2019-08-14 16:19:29.484375,119.51
2019-08-14 16:19:29.500000,111.19
2019-08-14 16:19:29.515625,96.67
2019-08-14 16:19:29.531250,78.13
2019-08-14 16:19:29.546875,60.47
2019-08-14 16:19:29.562500,48.43
2019-08-14 16:19:29.578125,43.75
2019-08-14 16:19:29.593750,44.36
2019-08-14 16:19:29.609375,45.64
2019-08-14 16:19:29.625000,43.05
2019-08-14 16:19:29.640625,34.86
2019-08-14 16:19:29.656250,22.89
2019-08-14 16:19:29.671875,11.18
2019-08-14 16:19:29.687500,3.58
2019-08-14 16:19:29.703125,1.22
2019-08-14 16:19:29.718750,2.02
2019-08-14 16:19:29.734375,2.18
2019-08-14 16:19:29.750000,-1.16
2019-08-14 16:19:29.765625,-8.1
2019-08-14 16:19:29.781250,-15.46
2019-08-14 16:19:29.796875,-18.9
2019-08-14 16:19:29.812500,-15.42
2019-08-14 16:19:29.828125,-5.56
2019-08-14 16:19:29.843750,6.58
2019-08-14 16:19:29.859375,15.29
2019-08-14 16:19:29.875000,16.27
2019-08-14 16:19:29.890625,9.21
2019-08-14 16:19:29.906250,-1.91
2019-08-14 16:19:29.921875,-10.81
2019-08-14 16:19:29.937500,-12.23
2019-08-14 16:19:29.953125,-4.85
2019-08-14 16:19:29.968750,8.01
2019-08-14 16:19:29.984375,20.05
2019-08-14 16:19:30.000000,25.63
2019-08-14 16:19:30.015625,22.96
2019-08-14 16:19:30.031250,14.93
2019-08-14 16:19:30.046875,7.19
2019-08-14 16:19:30.062500,4.67
2019-08-14 16:19:30.078125,8.42
2019-08-14 16:19:30.093750,14.88
2019-08-14 16:19:30.109375,18.24
2019-08-14 16:19:30.125000,14.12
2019-08-14 16:19:30.140625,2.58
2019-08-14 16:19:30.156250,-11.58
2019-08-14 16:19:30.171875,-21.48
2019-08-14 16:19:30.187500,-22.24
2019-08-14 16:19:30.203125,-13.68
2019-08-14 16:19:30.218750,-0.6
2019-08-14 16:19:30.234375,10.11
2019-08-14 16:19:30.250000,13.48
2019-08-14 16:19:30.265625,8.93
2019-08-14 16:19:30.281250,0.57
2019-08-14 16:19:30.296875,-5.58
2019-08-14 16:19:30.312500,-5.25
2019-08-14 16:19:30.328125,1.53
2019-08-14 16:19:30.343750,10.61
2019-08-14 16:19:30.359375,16.27
2019-08-14 16:19:30.375000,14.74
2019-08-14 16:19:30.390625,6.61
2019-08-14 16:19:30.406250,-3.52
2019-08-14 16:19:30.421875,-9.69
2019-08-14 16:19:30.437500,-8.2
2019-08-14 16:19:30.453125,0.32
2019-08-14 16:19:30.468750,11.31
2019-08-14 16:19:30.484375,18.82
2019-08-14 16:19:30.500000,19.18
2019-08-14 16:19:30.515625,12.79
2019-08-14 16:19:30.531250,3.99
2019-08-14 16:19:30.546875,-1.81
2019-08-14 16:19:30.562500,-1.15
2019-08-14 16:19:30.578125,5.46
2019-08-14 16:19:30.593750,13.98
2019-08-14 16:19:30.609375,19.47
2019-08-14 16:19:30.625000,18.99
2019-08-14 16:19:30.640625,13.33
2019-08-14 16:19:30.656250,6.39
2019-08-14 16:19:30.671875,2.77
2019-08-14 16:19:30.687500,4.78
2019-08-14 16:19:30.703125,10.95
2019-08-14 16:19:30.718750,16.6
2019-08-14 16:19:30.734375,16.5
2019-08-14 16:19:30.750000,8.09
2019-08-14 16:19:30.765625,-6.88
2019-08-14 16:19:30.781250,-23.04
2019-08-14 16:19:30.796875,-34.22
2019-08-14 16:19:30.812500,-36.79
2019-08-14 16:19:30.828125,-31.74
2019-08-14 16:19:30.843750,-23.86
2019-08-14 16:19:30.859375,-19.03
2019-08-14 16:19:30.875000,-20.89
2019-08-14 16:19:30.890625,-28.72
2019-08-14 16:19:30.906250,-38.13
2019-08-14 16:19:30.921875,-43.71
2019-08-14 16:19:30.937500,-42.16
2019-08-14 16:19:30.953125,-34.26
2019-08-14 16:19:30.968750,-24.29
2019-08-14 16:19:30.984375,-17.54
2019-08-14 16:19:31.000000,-17.06
2019-08-14 16:19:31.015625,-21.98
2019-08-14 16:19:31.031250,-27.83
2019-08-14 16:19:31.046875,-29.42
2019-08-14 16:19:31.062500,-23.73
2019-08-14 16:19:31.078125,-11.76
2019-08-14 16:19:31.093750,2.0
2019-08-14 16:19:31.109375,12.19
2019-08-14 16:19:31.125000,15.84
2019-08-14 16:19:31.140625,13.88
2019-08-14 16:19:31.156250,10.46
2019-08-14 16:19:31.171875,10.37
2019-08-14 16:19:31.187500,15.94
2019-08-14 16:19:31.203125,25.68
2019-08-14 16:19:31.218750,35.09
2019-08-14 16:19:31.234375,39.28
2019-08-14 16:19:31.250000,36.0
2019-08-14 16:19:31.265625,26.72
2019-08-14 16:19:31.281250,15.72
2019-08-14 16:19:31.296875,7.5
2019-08-14 16:19:31.312500,4.24
2019-08-14 16:19:31.328125,4.59
2019-08-14 16:19:31.343750,4.82
2019-08-14 16:19:31.359375,1.24
2019-08-14 16:19:31.375000,-7.47
2019-08-14 16:19:31.390625,-19.27
2019-08-14 16:19:31.406250,-29.7
2019-08-14 16:19:31.421875,-34.68
2019-08-14 16:19:31.437500,-32.82
2019-08-14 16:19:31.453125,-26.58
2019-08-14 16:19:31.468750,-20.89
2019-08-14 16:19:31.484375,-20.29
2019-08-14 16:19:31.500000,-26.33
2019-08-14 16:19:31.515625,-36.37
2019-08-14 16:19:31.531250,-45.05
2019-08-14 16:19:31.546875,-47.43
2019-08-14 16:19:31.562500,-41.92
2019-08-14 16:19:31.578125,-31.26
2019-08-14 16:19:31.593750,-21.01
2019-08-14 16:19:31.609375,-16.29
2019-08-14 16:19:31.625000,-18.73
2019-08-14 16:19:31.640625,-25.33
2019-08-14 16:19:31.656250,-30.24
2019-08-14 16:19:31.671875,-28.1
2019-08-14 16:19:31.687500,-17.17
2019-08-14 16:19:31.703125,-0.41
2019-08-14 16:19:31.718750,16.23
2019-08-14 16:19:31.734375,26.98
2019-08-14 16:19:31.750000,29.55
2019-08-14 16:19:31.765625,25.97
2019-08-14 16:19:31.781250,21.19
2019-08-14 16:19:31.796875,19.95
2019-08-14 16:19:31.812500,24.03
2019-08-14 16:19:31.828125,31.36
2019-08-14 16:19:31.843750,37.5
2019-08-14 16:19:31.859375,38.55
2019-08-14 16:19:31.875000,33.64
2019-08-14 16:19:31.890625,25.52
2019-08-14 16:19:31.906250,19.11
2019-08-14 16:19:31.921875,18.28
2019-08-14 16:19:31.937500,23.59
2019-08-14 16:19:31.953125,31.54
2019-08-14 16:19:31.968750,36.56
2019-08-14 16:19:31.984375,34.24
2019-08-14 16:19:32.000000,24.05
2019-08-14 16:19:32.015625,9.8
2019-08-14 16:19:32.031250,-2.06
2019-08-14 16:19:32.046875,-6.17
2019-08-14 16:19:32.062500,-1.1
2019-08-14 16:19:32.078125,9.87
2019-08-14 16:19:32.093750,20.62
2019-08-14 16:19:32.109375,25.71
2019-08-14 16:19:32.125000,23.32
2019-08-14 16:19:32.140625,16.02
2019-08-14 16:19:32.156250,8.89
2019-08-14 16:19:32.171875,6.16
2019-08-14 16:19:32.187500,8.64
2019-08-14 16:19:32.203125,13.16
2019-08-14 16:19:32.218750,14.78
2019-08-14 16:19:32.234375,9.83
2019-08-14 16:19:32.250000,-1.5
2019-08-14 16:19:32.265625,-15.1
2019-08-14 16:19:32.281250,-25.11
2019-08-14 16:19:32.296875,-27.17
2019-08-14 16:19:32.312500,-21.07
2019-08-14 16:19:32.328125,-10.61
2019-08-14 16:19:32.343750,-1.45
2019-08-14 16:19:32.359375,2.16
2019-08-14 16:19:32.375000,-0.23
2019-08-14 16:19:32.390625,-5.36
2019-08-14 16:19:32.406250,-8.44
2019-08-14 16:19:32.421875,-6.37
2019-08-14 16:19:32.437500,0.19
2019-08-14 16:19:32.453125,7.12
2019-08-14 16:19:32.468750,9.27
2019-08-14 16:19:32.484375,3.71
2019-08-14 16:19:32.500000,-8.17
2019-08-14 16:19:32.515625,-21.51
2019-08-14 16:19:32.531250,-30.33
2019-08-14 16:19:32.546875,-31.02
2019-08-14 16:19:32.562500,-24.48
2019-08-14 16:19:32.578125,-15.41
2019-08-14 16:19:32.593750,-9.66
2019-08-14 16:19:32.609375,-10.76
2019-08-14 16:19:32.625000,-17.88
2019-08-14 16:19:32.640625,-26.38
2019-08-14 16:19:32.656250,-30.58
2019-08-14 16:19:32.671875,-27.13
2019-08-14 16:19:32.687500,-17.08
2019-08-14 16:19:32.703125,-5.34
2019-08-14 16:19:32.718750,2.19
2019-08-14 16:19:32.734375,2.08
2019-08-14 16:19:32.750000,-4.61
2019-08-14 16:19:32.765625,-13.01
2019-08-14 16:19:32.781250,-17.3
2019-08-14 16:19:32.796875,-14.14
2019-08-14 16:19:32.812500,-4.67
2019-08-14 16:19:32.828125,6.07
2019-08-14 16:19:32.843750,12.27
2019-08-14 16:19:32.859375,10.56
2019-08-14 16:19:32.875000,2.12
2019-08-14 16:19:32.890625,-8.29
2019-08-14 16:19:32.906250,-15.11
2019-08-14 16:19:32.921875,-15.21
2019-08-14 16:19:32.937500,-9.68
2019-08-14 16:19:32.953125,-2.83
2019-08-14 16:19:32.968750,0.44
2019-08-14 16:19:32.984375,-2.19
2019-08-14 16:19:33.000000,-9.12
2019-08-14 16:19:33.015625,-15.96
2019-08-14 16:19:33.031250,-18.26
2019-08-14 16:19:33.046875,-14.05
2019-08-14 16:19:33.062500,-5.21
2019-08-14 16:19:33.078125,3.88
2019-08-14 16:19:33.093750,9.03
2019-08-14 16:19:33.109375,8.73
2019-08-14 16:19:33.125000,4.94
2019-08-14 16:19:33.140625,1.81
2019-08-14 16:19:33.156250,2.94
2019-08-14 16:19:33.171875,9.15
2019-08-14 16:19:33.187500,17.66
2019-08-14 16:19:33.203125,23.82
2019-08-14 16:19:33.218750,23.53
2019-08-14 16:19:33.234375,15.78
2019-08-14 16:19:33.250000,3.22
2019-08-14 16:19:33.265625,-9.13
2019-08-14 16:19:33.281250,-16.46
2019-08-14 16:19:33.296875,-16.73
2019-08-14 16:19:33.312500,-11.54
2019-08-14 16:19:33.328125,-5.1
2019-08-14 16:19:33.343750,-1.84
2019-08-14 16:19:33.359375,-4.0
2019-08-14 16:19:33.375000,-10.4
2019-08-14 16:19:33.390625,-17.36
2019-08-14 16:19:33.406250,-20.82
2019-08-14 16:19:33.421875,-18.8
2019-08-14 16:19:33.437500,-12.51
2019-08-14 16:19:33.453125,-5.67
2019-08-14 16:19:33.468750,-2.46
2019-08-14 16:19:33.484375,-4.85
2019-08-14 16:19:33.500000,-11.6
2019-08-14 16:19:33.515625,-18.84
2019-08-14 16:19:33.531250,-22.41
2019-08-14 16:19:33.546875,-20.3
2019-08-14 16:19:33.562500,-13.91
2019-08-14 16:19:33.578125,-7.24
2019-08-14 16:19:33.593750,-4.47
2019-08-14 16:19:33.609375,-7.29
2019-08-14 16:19:33.625000,-13.88
2019-08-14 16:19:33.640625,-19.75
2019-08-14 16:19:33.656250,-20.26
2019-08-14 16:19:33.671875,-13.35
2019-08-14 16:19:33.687500,-0.82
2019-08-14 16:19:33.703125,12.74
2019-08-14 16:19:33.718750,22.52
2019-08-14 16:19:33.734375,26.16
2019-08-14 16:19:33.750000,24.89
2019-08-14 16:19:33.765625,22.61
2019-08-14 16:19:33.781250,23.26
2019-08-14 16:19:33.796875,28.22
2019-08-14 16:19:33.812500,35.4
2019-08-14 16:19:33.828125,40.33
2019-08-14 16:19:33.843750,39.01
2019-08-14 16:19:33.859375,30.45
2019-08-14 16:19:33.875000,17.59
2019-08-14 16:19:33.890625,5.88
2019-08-14 16:19:33.906250,0.13
2019-08-14 16:19:33.921875,1.73
2019-08-14 16:19:33.937500,7.68
2019-08-14 16:19:33.953125,12.32
2019-08-14 16:19:33.968750,10.58
2019-08-14 16:19:33.984375,1.08
2019-08-14 16:19:34.000000,-12.96
2019-08-14 16:19:34.015625,-25.56
2019-08-14 16:19:34.031250,-31.51
2019-08-14 16:19:34.046875,-29.41
2019-08-14 16:19:34.062500,-22.36
2019-08-14 16:19:34.078125,-16.05
2019-08-14 16:19:34.093750,-14.96
2019-08-14 16:19:34.109375,-19.59
2019-08-14 16:19:34.125000,-26.01
2019-08-14 16:19:34.140625,-28.39
2019-08-14 16:19:34.156250,-22.5
2019-08-14 16:19:34.171875,-8.6
2019-08-14 16:19:34.187500,8.63
2019-08-14 16:19:34.203125,22.59
2019-08-14 16:19:34.218750,28.38
2019-08-14 16:19:34.234375,25.5
2019-08-14 16:19:34.250000,17.7
2019-08-14 16:19:34.265625,10.58
2019-08-14 16:19:34.281250,8.28
2019-08-14 16:19:34.296875,11.15
2019-08-14 16:19:34.312500,15.9
2019-08-14 16:19:34.328125,17.7
2019-08-14 16:19:34.343750,13.18
2019-08-14 16:19:34.359375,2.44
2019-08-14 16:19:34.375000,-11.0
2019-08-14 16:19:34.390625,-22.14
2019-08-14 16:19:34.406250,-27.09
2019-08-14 16:19:34.421875,-25.05
2019-08-14 16:19:34.437500,-18.55
2019-08-14 16:19:34.453125,-11.79
2019-08-14 16:19:34.468750,-7.97
2019-08-14 16:19:34.484375,-7.43
2019-08-14 16:19:34.500000,-7.52
2019-08-14 16:19:34.515625,-4.33
2019-08-14 16:19:34.531250,4.51
2019-08-14 16:19:34.546875,17.89
2019-08-14 16:19:34.562500,31.32
2019-08-14 16:19:34.578125,39.4
2019-08-14 16:19:34.593750,38.92
2019-08-14 16:19:34.609375,31.1
2019-08-14 16:19:34.625000,21.13
2019-08-14 16:19:34.640625,15.19
2019-08-14 16:19:34.656250,16.79
2019-08-14 16:19:34.671875,24.46
2019-08-14 16:19:34.687500,32.63
2019-08-14 16:19:34.703125,34.84
2019-08-14 16:19:34.718750,27.6
2019-08-14 16:19:34.734375,12.45
2019-08-14 16:19:34.750000,-4.9
2019-08-14 16:19:34.765625,-17.9
2019-08-14 16:19:34.781250,-22.78
2019-08-14 16:19:34.796875,-20.45
2019-08-14 16:19:34.812500,-15.56
2019-08-14 16:19:34.828125,-13.55
2019-08-14 16:19:34.843750,-17.54
2019-08-14 16:19:34.859375,-26.55
2019-08-14 16:19:34.875000,-36.36
2019-08-14 16:19:34.890625,-42.11
2019-08-14 16:19:34.906250,-41.14
2019-08-14 16:19:34.921875,-34.45
2019-08-14 16:19:34.937500,-25.96
2019-08-14 16:19:34.953125,-20.05
2019-08-14 16:19:34.968750,-18.64
2019-08-14 16:19:34.984375,-20.04
2019-08-14 16:19:35.000000,-19.78
2019-08-14 16:19:35.015625,-13.53
2019-08-14 16:19:35.031250,-0.11
2019-08-14 16:19:35.046875,17.35
2019-08-14 16:19:35.062500,32.69
2019-08-14 16:19:35.078125,40.16
2019-08-14 16:19:35.093750,37.73
2019-08-14 16:19:35.109375,28.37
2019-08-14 16:19:35.125000,18.26
2019-08-14 16:19:35.140625,13.23
2019-08-14 16:19:35.156250,15.26
2019-08-14 16:19:35.171875,21.38
2019-08-14 16:19:35.187500,25.65
2019-08-14 16:19:35.203125,22.88
2019-08-14 16:19:35.218750,11.89
2019-08-14 16:19:35.234375,-3.83
2019-08-14 16:19:35.250000,-18.13
2019-08-14 16:19:35.265625,-25.8
2019-08-14 16:19:35.281250,-25.38
2019-08-14 16:19:35.296875,-19.79
2019-08-14 16:19:35.312500,-14.5
2019-08-14 16:19:35.328125,-14.15
2019-08-14 16:19:35.343750,-20.05
2019-08-14 16:19:35.359375,-29.55
2019-08-14 16:19:35.375000,-37.54
2019-08-14 16:19:35.390625,-39.53
2019-08-14 16:19:35.406250,-34.15
2019-08-14 16:19:35.421875,-23.77
2019-08-14 16:19:35.437500,-13.08
2019-08-14 16:19:35.453125,-6.35
2019-08-14 16:19:35.468750,-4.8
2019-08-14 16:19:35.484375,-6.07
2019-08-14 16:19:35.500000,-5.66
2019-08-14 16:19:35.515625,0.15
2019-08-14 16:19:35.531250,11.92
2019-08-14 16:19:35.546875,26.36
2019-08-14 16:19:35.562500,38.08
2019-08-14 16:19:35.578125,42.5
2019-08-14 16:19:35.593750,38.43
2019-08-14 16:19:35.609375,28.83
2019-08-14 16:19:35.625000,18.76
2019-08-14 16:19:35.640625,12.56
2019-08-14 16:19:35.656250,11.22
2019-08-14 16:19:35.671875,11.97
2019-08-14 16:19:35.687500,10.2
2019-08-14 16:19:35.703125,2.54
2019-08-14 16:19:35.718750,-10.77
2019-08-14 16:19:35.734375,-25.51
2019-08-14 16:19:35.750000,-35.65
2019-08-14 16:19:35.765625,-36.83
2019-08-14 16:19:35.781250,-28.77
2019-08-14 16:19:35.796875,-15.65
2019-08-14 16:19:35.812500,-3.81
2019-08-14 16:19:35.828125,1.74
2019-08-14 16:19:35.843750,0.06
2019-08-14 16:19:35.859375,-5.27
2019-08-14 16:19:35.875000,-8.42
2019-08-14 16:19:35.890625,-4.81
2019-08-14 16:19:35.906250,6.1
2019-08-14 16:19:35.921875,20.36
2019-08-14 16:19:35.937500,31.66
2019-08-14 16:19:35.953125,34.91
2019-08-14 16:19:35.968750,29.22
2019-08-14 16:19:35.984375,18.4
2019-08-14 16:19:36.000000,8.74
2019-08-14 16:19:36.015625,5.31
2019-08-14 16:19:36.031250,9.23
2019-08-14 16:19:36.046875,16.93
2019-08-14 16:19:36.062500,22.68
2019-08-14 16:19:36.078125,22.24
2019-08-14 16:19:36.093750,15.37
2019-08-14 16:19:36.109375,6.15
2019-08-14 16:19:36.125000,0.15
2019-08-14 16:19:36.140625,0.93
2019-08-14 16:19:36.156250,7.52
2019-08-14 16:19:36.171875,15.1
2019-08-14 16:19:36.187500,17.83
2019-08-14 16:19:36.203125,12.6
2019-08-14 16:19:36.218750,0.84
2019-08-14 16:19:36.234375,-12.32
2019-08-14 16:19:36.250000,-21.05
2019-08-14 16:19:36.265625,-22.35
2019-08-14 16:19:36.281250,-17.62
2019-08-14 16:19:36.296875,-11.74
2019-08-14 16:19:36.312500,-10.18
2019-08-14 16:19:36.328125,-15.91
2019-08-14 16:19:36.343750,-27.62
2019-08-14 16:19:36.359375,-40.48
2019-08-14 16:19:36.375000,-48.62
2019-08-14 16:19:36.390625,-48.27
2019-08-14 16:19:36.406250,-39.59
2019-08-14 16:19:36.421875,-26.68
2019-08-14 16:19:36.437500,-15.18
2019-08-14 16:19:36.453125,-9.01
2019-08-14 16:19:36.468750,-8.34
2019-08-14 16:19:36.484375,-9.45
2019-08-14 16:19:36.500000,-7.25
2019-08-14 16:19:36.515625,1.38
2019-08-14 16:19:36.531250,15.38
2019-08-14 16:19:36.546875,29.72
2019-08-14 16:19:36.562500,38.1
2019-08-14 16:19:36.578125,36.68
2019-08-14 16:19:36.593750,26.22
2019-08-14 16:19:36.609375,11.74
2019-08-14 16:19:36.625000,-0.43
2019-08-14 16:19:36.640625,-6.03
2019-08-14 16:19:36.656250,-4.93
2019-08-14 16:19:36.671875,-0.77
2019-08-14 16:19:36.687500,1.71
2019-08-14 16:19:36.703125,-0.2
2019-08-14 16:19:36.718750,-5.66
2019-08-14 16:19:36.734375,-10.67
2019-08-14 16:19:36.750000,-10.71
2019-08-14 16:19:36.765625,-3.4
2019-08-14 16:19:36.781250,9.9
2019-08-14 16:19:36.796875,24.65
2019-08-14 16:19:36.812500,35.62
2019-08-14 16:19:36.828125,39.58
2019-08-14 16:19:36.843750,36.95
2019-08-14 16:19:36.859375,31.05
2019-08-14 16:19:36.875000,25.88
2019-08-14 16:19:36.890625,23.4
2019-08-14 16:19:36.906250,22.47
2019-08-14 16:19:36.921875,19.72
2019-08-14 16:19:36.937500,12.1
2019-08-14 16:19:36.953125,-0.54
2019-08-14 16:19:36.968750,-15.04
2019-08-14 16:19:36.984375,-26.21
2019-08-14 16:19:37.000000,-30.1
2019-08-14 16:19:37.015625,-26.38
2019-08-14 16:19:37.031250,-18.73
2019-08-14 16:19:37.046875,-12.87
2019-08-14 16:19:37.062500,-13.33
2019-08-14 16:19:37.078125,-20.71
2019-08-14 16:19:37.093750,-31.38
2019-08-14 16:19:37.109375,-39.39
2019-08-14 16:19:37.125000,-39.8
2019-08-14 16:19:37.140625,-31.57
2019-08-14 16:19:37.156250,-17.94
2019-08-14 16:19:37.171875,-4.63
2019-08-14 16:19:37.187500,3.5
2019-08-14 16:19:37.203125,4.97
2019-08-14 16:19:37.218750,2.16
2019-08-14 16:19:37.234375,-0.41
2019-08-14 16:19:37.250000,0.76
2019-08-14 16:19:37.265625,6.01
2019-08-14 16:19:37.281250,12.18
2019-08-14 16:19:37.296875,14.5
2019-08-14 16:19:37.312500,9.5
2019-08-14 16:19:37.328125,-2.7
2019-08-14 16:19:37.343750,-18.15
2019-08-14 16:19:37.359375,-30.85
2019-08-14 16:19:37.375000,-35.83
2019-08-14 16:19:37.390625,-31.48
2019-08-14 16:19:37.406250,-20.28
2019-08-14 16:19:37.421875,-7.37
2019-08-14 16:19:37.437500,2.35
2019-08-14 16:19:37.453125,6.53
2019-08-14 16:19:37.468750,6.58
2019-08-14 16:19:37.484375,6.46
2019-08-14 16:19:37.500000,10.07
2019-08-14 16:19:37.515625,18.66
2019-08-14 16:19:37.531250,29.95
2019-08-14 16:19:37.546875,39.32
2019-08-14 16:19:37.562500,42.32
2019-08-14 16:19:37.578125,37.65
2019-08-14 16:19:37.593750,27.63
2019-08-14 16:19:37.609375,17.0
2019-08-14 16:19:37.625000,10.07
2019-08-14 16:19:37.640625,8.22
2019-08-14 16:19:37.656250,9.05
2019-08-14 16:19:37.671875,8.07
2019-08-14 16:19:37.687500,1.8
2019-08-14 16:19:37.703125,-9.82
2019-08-14 16:19:37.718750,-22.86
2019-08-14 16:19:37.734375,-31.48
2019-08-14 16:19:37.750000,-31.23
2019-08-14 16:19:37.765625,-21.8
2019-08-14 16:19:37.781250,-7.34
2019-08-14 16:19:37.796875,5.69
2019-08-14 16:19:37.812500,12.16
2019-08-14 16:19:37.828125,11.02
2019-08-14 16:19:37.843750,5.61
2019-08-14 16:19:37.859375,1.67
2019-08-14 16:19:37.875000,3.39
2019-08-14 16:19:37.890625,11.01
2019-08-14 16:19:37.906250,20.51
2019-08-14 16:19:37.921875,25.99
2019-08-14 16:19:37.937500,23.59
2019-08-14 16:19:37.953125,13.52
2019-08-14 16:19:37.968750,0.18
2019-08-14 16:19:37.984375,-10.73
2019-08-14 16:19:38.000000,-15.43
2019-08-14 16:19:38.015625,-14.48
2019-08-14 16:19:38.031250,-12.05
2019-08-14 16:19:38.046875,-13.31
2019-08-14 16:19:38.062500,-21.13
2019-08-14 16:19:38.078125,-33.97
2019-08-14 16:19:38.093750,-46.46
2019-08-14 16:19:38.109375,-52.31
2019-08-14 16:19:38.125000,-47.76
2019-08-14 16:19:38.140625,-33.63
2019-08-14 16:19:38.156250,-15.16
2019-08-14 16:19:38.171875,0.78
2019-08-14 16:19:38.187500,9.35
2019-08-14 16:19:38.203125,10.09
2019-08-14 16:19:38.218750,6.87
2019-08-14 16:19:38.234375,5.41
2019-08-14 16:19:38.250000,9.7
2019-08-14 16:19:38.265625,19.53
2019-08-14 16:19:38.281250,30.63
2019-08-14 16:19:38.296875,37.23
2019-08-14 16:19:38.312500,35.57
2019-08-14 16:19:38.328125,26.06
2019-08-14 16:19:38.343750,13.09
2019-08-14 16:19:38.359375,2.31
2019-08-14 16:19:38.375000,-2.63
2019-08-14 16:19:38.390625,-2.07
2019-08-14 16:19:38.406250,0.54
2019-08-14 16:19:38.421875,1.02
2019-08-14 16:19:38.437500,-2.49
2019-08-14 16:19:38.453125,-8.29
2019-08-14 16:19:38.468750,-12.23
2019-08-14 16:19:38.484375,-10.37
2019-08-14 16:19:38.500000,-1.64
2019-08-14 16:19:38.515625,11.11
2019-08-14 16:19:38.531250,22.58
2019-08-14 16:19:38.546875,27.89
2019-08-14 16:19:38.562500,25.17
2019-08-14 16:19:38.578125,16.56
2019-08-14 16:19:38.593750,6.74
2019-08-14 16:19:38.609375,0.28
2019-08-14 16:19:38.625000,-1.12
2019-08-14 16:19:38.640625,0.69
2019-08-14 16:19:38.656250,1.68
2019-08-14 16:19:38.671875,-1.65
2019-08-14 16:19:38.687500,-9.73
2019-08-14 16:19:38.703125,-19.5
2019-08-14 16:19:38.718750,-25.95
2019-08-14 16:19:38.734375,-24.94
2019-08-14 16:19:38.750000,-15.76
2019-08-14 16:19:38.765625,-1.51
2019-08-14 16:19:38.781250,12.3
2019-08-14 16:19:38.796875,20.76
2019-08-14 16:19:38.812500,22.05
2019-08-14 16:19:38.828125,18.06
2019-08-14 16:19:38.843750,13.05
2019-08-14 16:19:38.859375,10.88
2019-08-14 16:19:38.875000,12.57
2019-08-14 16:19:38.890625,15.69
2019-08-14 16:19:38.906250,15.82
2019-08-14 16:19:38.921875,9.56
2019-08-14 16:19:38.937500,-3.16
2019-08-14 16:19:38.953125,-18.55
2019-08-14 16:19:38.968750,-30.71
2019-08-14 16:19:38.984375,-34.91
2019-08-14 16:19:39.000000,-30.18
2019-08-14 16:19:39.015625,-19.86
2019-08-14 16:19:39.031250,-9.84
2019-08-14 16:19:39.046875,-4.93
2019-08-14 16:19:39.062500,-6.3
2019-08-14 16:19:39.078125,-10.66
2019-08-14 16:19:39.093750,-12.65
2019-08-14 16:19:39.109375,-8.01
2019-08-14 16:19:39.125000,3.27
2019-08-14 16:19:39.140625,16.64
2019-08-14 16:19:39.156250,25.3
2019-08-14 16:19:39.171875,24.1
2019-08-14 16:19:39.187500,12.61
2019-08-14 16:19:39.203125,-4.41
2019-08-14 16:19:39.218750,-19.56
2019-08-14 16:19:39.234375,-26.87
2019-08-14 16:19:39.250000,-25.07
2019-08-14 16:19:39.265625,-17.98
2019-08-14 16:19:39.281250,-11.95
2019-08-14 16:19:39.296875,-11.94
2019-08-14 16:19:39.312500,-18.34
2019-08-14 16:19:39.328125,-26.81
2019-08-14 16:19:39.343750,-31.01
2019-08-14 16:19:39.359375,-26.38
2019-08-14 16:19:39.375000,-13.08
2019-08-14 16:19:39.390625,4.25
2019-08-14 16:19:39.406250,18.83
2019-08-14 16:19:39.421875,25.66
2019-08-14 16:19:39.437500,24.14
2019-08-14 16:19:39.453125,17.91
2019-08-14 16:19:39.468750,12.78
2019-08-14 16:19:39.484375,13.08
2019-08-14 16:19:39.500000,19.41
2019-08-14 16:19:39.515625,28.37
2019-08-14 16:19:39.531250,34.54
2019-08-14 16:19:39.546875,33.65
2019-08-14 16:19:39.562500,25.11
2019-08-14 16:19:39.578125,12.26
2019-08-14 16:19:39.593750,0.41
2019-08-14 16:19:39.609375,-6.26
2019-08-14 16:19:39.625000,-7.07
2019-08-14 16:19:39.640625,-5.03
2019-08-14 16:19:39.656250,-4.71
2019-08-14 16:19:39.671875,-8.98
2019-08-14 16:19:39.687500,-16.95
2019-08-14 16:19:39.703125,-24.13
2019-08-14 16:19:39.718750,-25.11
2019-08-14 16:19:39.734375,-16.99
2019-08-14 16:19:39.750000,-1.54
2019-08-14 16:19:39.765625,15.47
2019-08-14 16:19:39.781250,27.44
2019-08-14 16:19:39.796875,30.36
2019-08-14 16:19:39.812500,25.0
2019-08-14 16:19:39.828125,16.14
2019-08-14 16:19:39.843750,9.45
2019-08-14 16:19:39.859375,8.21
2019-08-14 16:19:39.875000,11.46
2019-08-14 16:19:39.890625,14.88
2019-08-14 16:19:39.906250,13.5
2019-08-14 16:19:39.921875,4.84
2019-08-14 16:19:39.937500,-9.4
2019-08-14 16:19:39.953125,-24.27
2019-08-14 16:19:39.968750,-34.21
2019-08-14 16:19:39.984375,-36.26
2019-08-14 16:19:40.000000,-31.57
2019-08-14 16:19:40.015625,-24.64
2019-08-14 16:19:40.031250,-20.47
2019-08-14 16:19:40.046875,-21.67
2019-08-14 16:19:40.062500,-26.58
2019-08-14 16:19:40.078125,-30.43
2019-08-14 16:19:40.093750,-28.05
2019-08-14 16:19:40.109375,-17.18
2019-08-14 16:19:40.125000,0.09
2019-08-14 16:19:40.140625,18.0
2019-08-14 16:19:40.156250,30.32
2019-08-14 16:19:40.171875,33.73
2019-08-14 16:19:40.187500,29.32
2019-08-14 16:19:40.203125,21.97
2019-08-14 16:19:40.218750,17.17
2019-08-14 16:19:40.234375,17.96
2019-08-14 16:19:40.250000,23.18
2019-08-14 16:19:40.265625,28.44
2019-08-14 16:19:40.281250,29.03
2019-08-14 16:19:40.296875,22.81
2019-08-14 16:19:40.312500,11.69
2019-08-14 16:19:40.328125,0.42
2019-08-14 16:19:40.343750,-6.25
2019-08-14 16:19:40.359375,-6.44
2019-08-14 16:19:40.375000,-2.2
2019-08-14 16:19:40.390625,1.61
2019-08-14 16:19:40.406250,0.37
2019-08-14 16:19:40.421875,-7.51
2019-08-14 16:19:40.437500,-19.64
2019-08-14 16:19:40.453125,-30.71
2019-08-14 16:19:40.468750,-35.71
2019-08-14 16:19:40.484375,-32.73
2019-08-14 16:19:40.500000,-23.99
2019-08-14 16:19:40.515625,-14.54
2019-08-14 16:19:40.531250,-9.15
2019-08-14 16:19:40.546875,-9.47
2019-08-14 16:19:40.562500,-12.95
2019-08-14 16:19:40.578125,-14.54
2019-08-14 16:19:40.593750,-9.79
2019-08-14 16:19:40.609375,1.86
2019-08-14 16:19:40.625000,16.58
2019-08-14 16:19:40.640625,27.81
2019-08-14 16:19:40.656250,29.95
2019-08-14 16:19:40.671875,21.81
2019-08-14 16:19:40.687500,7.18
2019-08-14 16:19:40.703125,-7.16
2019-08-14 16:19:40.718750,-15.53
2019-08-14 16:19:40.734375,-16.36
2019-08-14 16:19:40.750000,-12.85
2019-08-14 16:19:40.765625,-10.78
2019-08-14 16:19:40.781250,-14.65
2019-08-14 16:19:40.796875,-24.71
2019-08-14 16:19:40.812500,-36.64
2019-08-14 16:19:40.828125,-43.87
2019-08-14 16:19:40.843750,-41.45
2019-08-14 16:19:40.859375,-28.98
2019-08-14 16:19:40.875000,-10.8
2019-08-14 16:19:40.890625,6.19
2019-08-14 16:19:40.906250,16.47
2019-08-14 16:19:40.921875,18.78
2019-08-14 16:19:40.937500,16.4
2019-08-14 16:19:40.953125,14.98
2019-08-14 16:19:40.968750,18.93
2019-08-14 16:19:40.984375,28.71
2019-08-14 16:19:41.000000,40.57
2019-08-14 16:19:41.015625,48.92
2019-08-14 16:19:41.031250,49.65
2019-08-14 16:19:41.046875,42.63
2019-08-14 16:19:41.062500,31.78
2019-08-14 16:19:41.078125,22.52
2019-08-14 16:19:41.093750,18.71
2019-08-14 16:19:41.109375,20.0
2019-08-14 16:19:41.125000,22.49
2019-08-14 16:19:41.140625,21.04
2019-08-14 16:19:41.156250,12.63
2019-08-14 16:19:41.171875,-1.54
2019-08-14 16:19:41.187500,-16.5
2019-08-14 16:19:41.203125,-26.33
2019-08-14 16:19:41.218750,-27.61
2019-08-14 16:19:41.234375,-21.35
2019-08-14 16:19:41.250000,-12.76
2019-08-14 16:19:41.265625,-8.17
2019-08-14 16:19:41.281250,-11.43
2019-08-14 16:19:41.296875,-21.7
2019-08-14 16:19:41.312500,-33.8
2019-08-14 16:19:41.328125,-41.14
2019-08-14 16:19:41.343750,-39.44
2019-08-14 16:19:41.359375,-29.19
2019-08-14 16:19:41.375000,-15.04
2019-08-14 16:19:41.390625,-3.15
2019-08-14 16:19:41.406250,2.35
2019-08-14 16:19:41.421875,1.48
2019-08-14 16:19:41.437500,-2.06
2019-08-14 16:19:41.453125,-3.62
2019-08-14 16:19:41.468750,-0.72
2019-08-14 16:19:41.484375,5.38
2019-08-14 16:19:41.500000,10.3
2019-08-14 16:19:41.515625,9.51
2019-08-14 16:19:41.531250,1.34
2019-08-14 16:19:41.546875,-11.63
2019-08-14 16:19:41.562500,-23.73
2019-08-14 16:19:41.578125,-29.36
2019-08-14 16:19:41.593750,-25.99
2019-08-14 16:19:41.609375,-15.73
2019-08-14 16:19:41.625000,-3.96
2019-08-14 16:19:41.640625,3.62
2019-08-14 16:19:41.656250,4.3
2019-08-14 16:19:41.671875,-0.3
2019-08-14 16:19:41.687500,-5.34
2019-08-14 16:19:41.703125,-5.91
2019-08-14 16:19:41.718750,-0.11
2019-08-14 16:19:41.734375,9.71
2019-08-14 16:19:41.750000,18.26
2019-08-14 16:19:41.765625,20.58
2019-08-14 16:19:41.781250,15.08
2019-08-14 16:19:41.796875,4.67
2019-08-14 16:19:41.812500,-4.87
2019-08-14 16:19:41.828125,-8.16
2019-08-14 16:19:41.843750,-3.23
2019-08-14 16:19:41.859375,7.37
2019-08-14 16:19:41.875000,18.12
2019-08-14 16:19:41.890625,23.61
2019-08-14 16:19:41.906250,21.59
2019-08-14 16:19:41.921875,13.96
2019-08-14 16:19:41.937500,5.5
2019-08-14 16:19:41.953125,0.94
2019-08-14 16:19:41.968750,2.21
2019-08-14 16:19:41.984375,7.38
2019-08-14 16:19:42.000000,11.82
2019-08-14 16:19:42.015625,11.07
2019-08-14 16:19:42.031250,3.62
2019-08-14 16:19:42.046875,-8.02
2019-08-14 16:19:42.062500,-18.56
2019-08-14 16:19:42.078125,-22.95
2019-08-14 16:19:42.093750,-19.3
2019-08-14 16:19:42.109375,-10.06
2019-08-14 16:19:42.125000,-0.6
2019-08-14 16:19:42.140625,3.65
2019-08-14 16:19:42.156250,0.52
2019-08-14 16:19:42.171875,-7.64
2019-08-14 16:19:42.187500,-15.34
2019-08-14 16:19:42.203125,-17.22
2019-08-14 16:19:42.218750,-11.18
2019-08-14 16:19:42.234375,0.14
2019-08-14 16:19:42.250000,10.98
2019-08-14 16:19:42.265625,15.7
2019-08-14 16:19:42.281250,12.09
2019-08-14 16:19:42.296875,2.75
2019-08-14 16:19:42.312500,-6.53
2019-08-14 16:19:42.328125,-10.11
2019-08-14 16:19:42.343750,-5.83
2019-08-14 16:19:42.359375,3.9
2019-08-14 16:19:42.375000,13.72
2019-08-14 16:19:42.390625,18.7
2019-08-14 16:19:42.406250,17.49
2019-08-14 16:19:42.421875,12.92
2019-08-14 16:19:42.437500,10.01
2019-08-14 16:19:42.453125,12.5
2019-08-14 16:19:42.468750,20.28
2019-08-14 16:19:42.484375,29.26
2019-08-14 16:19:42.500000,33.92
2019-08-14 16:19:42.515625,30.98
2019-08-14 16:19:42.531250,21.66
2019-08-14 16:19:42.546875,11.08
2019-08-14 16:19:42.562500,5.28
2019-08-14 16:19:42.578125,7.47
2019-08-14 16:19:42.593750,15.94
2019-08-14 16:19:42.609375,24.83
2019-08-14 16:19:42.625000,27.53
2019-08-14 16:19:42.640625,20.48
2019-08-14 16:19:42.656250,5.2
2019-08-14 16:19:42.671875,-12.32
2019-08-14 16:19:42.687500,-25.05
2019-08-14 16:19:42.703125,-28.8
2019-08-14 16:19:42.718750,-24.25
2019-08-14 16:19:42.734375,-16.56
2019-08-14 16:19:42.750000,-12.15
2019-08-14 16:19:42.765625,-15.08
2019-08-14 16:19:42.781250,-24.8
2019-08-14 16:19:42.796875,-36.58
2019-08-14 16:19:42.812500,-44.27
2019-08-14 16:19:42.828125,-43.95
2019-08-14 16:19:42.843750,-35.91
2019-08-14 16:19:42.859375,-24.25
2019-08-14 16:19:42.875000,-14.3
2019-08-14 16:19:42.890625,-9.29
2019-08-14 16:19:42.906250,-8.72
2019-08-14 16:19:42.921875,-8.76
2019-08-14 16:19:42.937500,-4.86
2019-08-14 16:19:42.953125,5.08
2019-08-14 16:19:42.968750,19.22
2019-08-14 16:19:42.984375,32.64
2019-08-14 16:19:43.000000,40.06
2019-08-14 16:19:43.015625,39.07
2019-08-14 16:19:43.031250,31.64
2019-08-14 16:19:43.046875,22.97
2019-08-14 16:19:43.062500,18.59
2019-08-14 16:19:43.078125,21.06
2019-08-14 16:19:43.093750,28.5
2019-08-14 16:19:43.109375,35.71
2019-08-14 16:19:43.125000,37.23
2019-08-14 16:19:43.140625,30.56
2019-08-14 16:19:43.156250,17.5
2019-08-14 16:19:43.171875,3.33
2019-08-14 16:19:43.187500,-6.23
2019-08-14 16:19:43.203125,-8.21
2019-08-14 16:19:43.218750,-3.69
2019-08-14 16:19:43.234375,2.99
2019-08-14 16:19:43.250000,6.92
2019-08-14 16:19:43.265625,5.54
2019-08-14 16:19:43.281250,-0.18
2019-08-14 16:19:43.296875,-6.59
2019-08-14 16:19:43.312500,-9.73
2019-08-14 16:19:43.328125,-8.01
2019-08-14 16:19:43.343750,-3.21
2019-08-14 16:19:43.359375,0.43
2019-08-14 16:19:43.375000,-1.07
2019-08-14 16:19:43.390625,-8.69
2019-08-14 16:19:43.406250,-19.76
2019-08-14 16:19:43.421875,-29.2
2019-08-14 16:19:43.437500,-32.62
2019-08-14 16:19:43.453125,-29.0
2019-08-14 16:19:43.468750,-21.34
2019-08-14 16:19:43.484375,-14.95
2019-08-14 16:19:43.500000,-14.43
2019-08-14 16:19:43.515625,-20.74
2019-08-14 16:19:43.531250,-30.47
2019-08-14 16:19:43.546875,-37.96
2019-08-14 16:19:43.562500,-38.24
2019-08-14 16:19:43.578125,-30.12
2019-08-14 16:19:43.593750,-16.78
2019-08-14 16:19:43.609375,-4.15
2019-08-14 16:19:43.625000,2.4
2019-08-14 16:19:43.640625,1.0
2019-08-14 16:19:43.656250,-5.86
2019-08-14 16:19:43.671875,-12.67
2019-08-14 16:19:43.687500,-14.36
2019-08-14 16:19:43.703125,-9.16
2019-08-14 16:19:43.718750,0.25
2019-08-14 16:19:43.734375,8.33
2019-08-14 16:19:43.750000,9.97
2019-08-14 16:19:43.765625,3.75
2019-08-14 16:19:43.781250,-7.14
2019-08-14 16:19:43.796875,-16.8
2019-08-14 16:19:43.812500,-20.1
2019-08-14 16:19:43.828125,-15.97
2019-08-14 16:19:43.843750,-7.73
2019-08-14 16:19:43.859375,-1.13
2019-08-14 16:19:43.875000,-0.71
2019-08-14 16:19:43.890625,-6.81
2019-08-14 16:19:43.906250,-15.53
2019-08-14 16:19:43.921875,-21.11
2019-08-14 16:19:43.937500,-19.6
2019-08-14 16:19:43.953125,-11.25
2019-08-14 16:19:43.968750,-0.51
2019-08-14 16:19:43.984375,6.78
2019-08-14 16:19:44.000000,6.8
2019-08-14 16:19:44.015625,-0.01
2019-08-14 16:19:44.031250,-9.03
2019-08-14 16:19:44.046875,-14.28
2019-08-14 16:19:44.062500,-11.69
2019-08-14 16:19:44.078125,-1.43
2019-08-14 16:19:44.093750,12.27
2019-08-14 16:19:44.109375,23.57
2019-08-14 16:19:44.125000,28.47
2019-08-14 16:19:44.140625,26.94
2019-08-14 16:19:44.156250,22.76
2019-08-14 16:19:44.171875,21.12
2019-08-14 16:19:44.187500,25.21
2019-08-14 16:19:44.203125,34.28
2019-08-14 16:19:44.218750,44.01
2019-08-14 16:19:44.234375,49.2
2019-08-14 16:19:44.250000,46.85
2019-08-14 16:19:44.265625,38.16
2019-08-14 16:19:44.281250,27.79
2019-08-14 16:19:44.296875,21.14
2019-08-14 16:19:44.312500,21.17
2019-08-14 16:19:44.328125,26.57
2019-08-14 16:19:44.343750,32.7
2019-08-14 16:19:44.359375,34.39
2019-08-14 16:19:44.375000,29.03
2019-08-14 16:19:44.390625,18.2
2019-08-14 16:19:44.406250,6.66
2019-08-14 16:19:44.421875,-0.51
2019-08-14 16:19:44.437500,-1.07
2019-08-14 16:19:44.453125,3.22
2019-08-14 16:19:44.468750,7.63
2019-08-14 16:19:44.484375,7.28
2019-08-14 16:19:44.500000,0.21
2019-08-14 16:19:44.515625,-11.55
2019-08-14 16:19:44.531250,-23.14
2019-08-14 16:19:44.546875,-29.78
2019-08-14 16:19:44.562500,-29.65
2019-08-14 16:19:44.578125,-24.74
2019-08-14 16:19:44.593750,-19.62
2019-08-14 16:19:44.609375,-18.6
2019-08-14 16:19:44.625000,-23.2
2019-08-14 16:19:44.640625,-31.27
2019-08-14 16:19:44.656250,-38.5
2019-08-14 16:19:44.671875,-40.91
2019-08-14 16:19:44.687500,-37.37
2019-08-14 16:19:44.703125,-30.16
2019-08-14 16:19:44.718750,-23.73
2019-08-14 16:19:44.734375,-22.05
2019-08-14 16:19:44.750000,-26.2
2019-08-14 16:19:44.765625,-33.54
2019-08-14 16:19:44.781250,-39.12
2019-08-14 16:19:44.796875,-38.26
2019-08-14 16:19:44.812500,-29.36
2019-08-14 16:19:44.828125,-14.79
2019-08-14 16:19:44.843750,0.13
2019-08-14 16:19:44.859375,10.17
2019-08-14 16:19:44.875000,13.24
2019-08-14 16:19:44.890625,11.5
2019-08-14 16:19:44.906250,10.04
2019-08-14 16:19:44.921875,13.74
2019-08-14 16:19:44.937500,24.0
2019-08-14 16:19:44.953125,37.8
2019-08-14 16:19:44.968750,49.25
2019-08-14 16:19:44.984375,52.99
2019-08-14 16:19:45.000000,47.35
2019-08-14 16:19:45.015625,35.32
2019-08-14 16:19:45.031250,22.62
2019-08-14 16:19:45.046875,14.42
2019-08-14 16:19:45.062500,12.45
2019-08-14 16:19:45.078125,13.98
2019-08-14 16:19:45.093750,13.96
2019-08-14 16:19:45.109375,8.27
2019-08-14 16:19:45.125000,-3.77
2019-08-14 16:19:45.140625,-18.64
2019-08-14 16:19:45.156250,-30.84
2019-08-14 16:19:45.171875,-35.87
2019-08-14 16:19:45.187500,-32.99
2019-08-14 16:19:45.203125,-25.55
2019-08-14 16:19:45.218750,-19.03
2019-08-14 16:19:45.234375,-17.95
2019-08-14 16:19:45.250000,-23.07
2019-08-14 16:19:45.265625,-30.91
2019-08-14 16:19:45.281250,-35.84
2019-08-14 16:19:45.296875,-33.24
2019-08-14 16:19:45.312500,-22.52
2019-08-14 16:19:45.328125,-7.5
2019-08-14 16:19:45.343750,5.7
2019-08-14 16:19:45.359375,12.26
2019-08-14 16:19:45.375000,11.48
2019-08-14 16:19:45.390625,7.15
2019-08-14 16:19:45.406250,5.14
2019-08-14 16:19:45.421875,9.7
2019-08-14 16:19:45.437500,20.8
2019-08-14 16:19:45.453125,33.94
2019-08-14 16:19:45.468750,42.83
2019-08-14 16:19:45.484375,43.24
2019-08-14 16:19:45.500000,35.45
2019-08-14 16:19:45.515625,24.27
2019-08-14 16:19:45.531250,16.03
2019-08-14 16:19:45.546875,14.83
2019-08-14 16:19:45.562500,20.32
2019-08-14 16:19:45.578125,27.86
2019-08-14 16:19:45.593750,31.65
2019-08-14 16:19:45.609375,27.98
2019-08-14 16:19:45.625000,17.36
2019-08-14 16:19:45.640625,4.03
2019-08-14 16:19:45.656250,-6.73
2019-08-14 16:19:45.671875,-11.6
2019-08-14 16:19:45.687500,-11.08
2019-08-14 16:19:45.703125,-8.9
2019-08-14 16:19:45.718750,-9.64
2019-08-14 16:19:45.734375,-15.83
2019-08-14 16:19:45.750000,-26.38
2019-08-14 16:19:45.765625,-36.97
2019-08-14 16:19:45.781250,-42.67
2019-08-14 16:19:45.796875,-40.68
2019-08-14 16:19:45.812500,-32.07
2019-08-14 16:19:45.828125,-21.15
2019-08-14 16:19:45.843750,-13.09
2019-08-14 16:19:45.859375,-11.04
2019-08-14 16:19:45.875000,-14.22
2019-08-14 16:19:45.890625,-18.51
2019-08-14 16:19:45.906250,-18.96
2019-08-14 16:19:45.921875,-12.9
2019-08-14 16:19:45.937500,-1.6
2019-08-14 16:19:45.953125,10.36
2019-08-14 16:19:45.968750,17.85
2019-08-14 16:19:45.984375,18.3
2019-08-14 16:19:46.000000,13.33
2019-08-14 16:19:46.015625,7.8
2019-08-14 16:19:46.031250,6.88
2019-08-14 16:19:46.046875,12.75
2019-08-14 16:19:46.062500,23.33
2019-08-14 16:19:46.078125,33.18
2019-08-14 16:19:46.093750,36.71
2019-08-14 16:19:46.109375,31.41
2019-08-14 16:19:46.125000,19.26
2019-08-14 16:19:46.140625,5.65
2019-08-14 16:19:46.156250,-3.93
2019-08-14 16:19:46.171875,-6.91
2019-08-14 16:19:46.187500,-4.96
2019-08-14 16:19:46.203125,-2.85
2019-08-14 16:19:46.218750,-5.27
2019-08-14 16:19:46.234375,-13.8
2019-08-14 16:19:46.250000,-25.98
2019-08-14 16:19:46.265625,-36.53
2019-08-14 16:19:46.281250,-40.62
2019-08-14 16:19:46.296875,-36.81
2019-08-14 16:19:46.312500,-27.95
2019-08-14 16:19:46.328125,-19.52
2019-08-14 16:19:46.343750,-16.24
2019-08-14 16:19:46.359375,-19.17
2019-08-14 16:19:46.375000,-25.08
2019-08-14 16:19:46.390625,-28.33
2019-08-14 16:19:46.406250,-24.47
2019-08-14 16:19:46.421875,-12.98
2019-08-14 16:19:46.437500,2.05
2019-08-14 16:19:46.453125,14.23
2019-08-14 16:19:46.468750,18.45
2019-08-14 16:19:46.484375,13.92
2019-08-14 16:19:46.500000,4.66
2019-08-14 16:19:46.515625,-2.68
2019-08-14 16:19:46.531250,-2.83
2019-08-14 16:19:46.546875,5.11
2019-08-14 16:19:46.562500,17.19
2019-08-14 16:19:46.578125,26.98
2019-08-14 16:19:46.593750,29.56
2019-08-14 16:19:46.609375,24.42
2019-08-14 16:19:46.625000,15.7
2019-08-14 16:19:46.640625,9.71
2019-08-14 16:19:46.656250,10.76
2019-08-14 16:19:46.671875,18.69
2019-08-14 16:19:46.687500,28.82
2019-08-14 16:19:46.703125,34.73
2019-08-14 16:19:46.718750,32.27
2019-08-14 16:19:46.734375,22.04
2019-08-14 16:19:46.750000,9.03
2019-08-14 16:19:46.765625,-0.49
2019-08-14 16:19:46.781250,-2.6
2019-08-14 16:19:46.796875,1.87
2019-08-14 16:19:46.812500,8.01
2019-08-14 16:19:46.828125,9.89
2019-08-14 16:19:46.843750,4.19
2019-08-14 16:19:46.859375,-7.61
2019-08-14 16:19:46.875000,-20.07
2019-08-14 16:19:46.890625,-26.78
2019-08-14 16:19:46.906250,-24.17
2019-08-14 16:19:46.921875,-13.45
2019-08-14 16:19:46.937500,0.04
2019-08-14 16:19:46.953125,9.92
2019-08-14 16:19:46.968750,12.34
2019-08-14 16:19:46.984375,7.97
2019-08-14 16:19:47.000000,1.19
2019-08-14 16:19:47.015625,-2.7
2019-08-14 16:19:47.031250,-1.02
2019-08-14 16:19:47.046875,4.85
2019-08-14 16:19:47.062500,10.27
2019-08-14 16:19:47.078125,10.36
2019-08-14 16:19:47.093750,3.04
2019-08-14 16:19:47.109375,-9.45
2019-08-14 16:19:47.125000,-21.74
2019-08-14 16:19:47.140625,-28.15
2019-08-14 16:19:47.156250,-25.95
2019-08-14 16:19:47.171875,-16.78
2019-08-14 16:19:47.187500,-5.63
2019-08-14 16:19:47.203125,2.0
2019-08-14 16:19:47.218750,3.22
2019-08-14 16:19:47.234375,-0.77
2019-08-14 16:19:47.250000,-5.51
2019-08-14 16:19:47.265625,-6.16
2019-08-14 16:19:47.281250,-0.32
2019-08-14 16:19:47.296875,10.34
2019-08-14 16:19:47.312500,21.06
2019-08-14 16:19:47.328125,26.79
2019-08-14 16:19:47.343750,25.05
2019-08-14 16:19:47.359375,17.47
2019-08-14 16:19:47.375000,8.84
2019-08-14 16:19:47.390625,4.33
2019-08-14 16:19:47.406250,6.52
2019-08-14 16:19:47.421875,13.95
2019-08-14 16:19:47.437500,22.21
2019-08-14 16:19:47.453125,26.62
2019-08-14 16:19:47.468750,25.17
2019-08-14 16:19:47.484375,19.68
2019-08-14 16:19:47.500000,14.51
2019-08-14 16:19:47.515625,13.66
2019-08-14 16:19:47.531250,18.02
2019-08-14 16:19:47.546875,24.46
2019-08-14 16:19:47.562500,27.53
2019-08-14 16:19:47.578125,22.85
2019-08-14 16:19:47.593750,9.81
2019-08-14 16:19:47.609375,-7.54
2019-08-14 16:19:47.625000,-22.61
2019-08-14 16:19:47.640625,-29.86
2019-08-14 16:19:47.656250,-27.91
2019-08-14 16:19:47.671875,-20.17
2019-08-14 16:19:47.687500,-12.76
2019-08-14 16:19:47.703125,-10.97
2019-08-14 16:19:47.718750,-16.19
2019-08-14 16:19:47.734375,-25.38
2019-08-14 16:19:47.750000,-32.97
2019-08-14 16:19:47.765625,-34.38
2019-08-14 16:19:47.781250,-28.69
2019-08-14 16:19:47.796875,-19.06
2019-08-14 16:19:47.812500,-10.98
2019-08-14 16:19:47.828125,-8.89
2019-08-14 16:19:47.843750,-13.78
2019-08-14 16:19:47.859375,-22.49
2019-08-14 16:19:47.875000,-29.52
2019-08-14 16:19:47.890625,-30.45
2019-08-14 16:19:47.906250,-24.29
2019-08-14 16:19:47.921875,-14.36
2019-08-14 16:19:47.937500,-6.11
2019-08-14 16:19:47.953125,-3.91
2019-08-14 16:19:47.968750,-8.29
2019-08-14 16:19:47.984375,-15.55
2019-08-14 16:19:48.000000,-19.83
2019-08-14 16:19:48.015625,-16.85
2019-08-14 16:19:48.031250,-6.43
2019-08-14 16:19:48.046875,7.14
2019-08-14 16:19:48.062500,17.61
2019-08-14 16:19:48.078125,20.56
2019-08-14 16:19:48.093750,15.71
2019-08-14 16:19:48.109375,7.1
2019-08-14 16:19:48.125000,0.51
2019-08-14 16:19:48.140625,-0.16
2019-08-14 16:19:48.156250,4.94
2019-08-14 16:19:48.171875,11.55
2019-08-14 16:19:48.187500,14.19
2019-08-14 16:19:48.203125,9.38
2019-08-14 16:19:48.218750,-2.07
2019-08-14 16:19:48.234375,-15.32
2019-08-14 16:19:48.250000,-24.08
2019-08-14 16:19:48.265625,-24.03
2019-08-14 16:19:48.281250,-15.38
2019-08-14 16:19:48.296875,-2.46
2019-08-14 16:19:48.312500,8.69
2019-08-14 16:19:48.328125,14.06
2019-08-14 16:19:48.343750,13.68
2019-08-14 16:19:48.359375,11.38
2019-08-14 16:19:48.375000,12.22
2019-08-14 16:19:48.390625,18.98
2019-08-14 16:19:48.406250,30.49
2019-08-14 16:19:48.421875,41.99
2019-08-14 16:19:48.437500,48.2
2019-08-14 16:19:48.453125,46.33
2019-08-14 16:19:48.468750,37.84
2019-08-14 16:19:48.484375,27.34
2019-08-14 16:19:48.500000,19.85
2019-08-14 16:19:48.515625,17.74
2019-08-14 16:19:48.531250,19.34
2019-08-14 16:19:48.546875,20.17
2019-08-14 16:19:48.562500,15.73
2019-08-14 16:19:48.578125,4.57
2019-08-14 16:19:48.593750,-10.63
2019-08-14 16:19:48.609375,-24.47
2019-08-14 16:19:48.625000,-31.71
2019-08-14 16:19:48.640625,-30.5
2019-08-14 16:19:48.656250,-23.42
2019-08-14 16:19:48.671875,-16.14
2019-08-14 16:19:48.687500,-14.09
2019-08-14 16:19:48.703125,-19.24
2019-08-14 16:19:48.718750,-28.89
2019-08-14 16:19:48.734375,-37.26
2019-08-14 16:19:48.750000,-38.96
2019-08-14 16:19:48.765625,-32.1
2019-08-14 16:19:48.781250,-19.52
2019-08-14 16:19:48.796875,-6.91
2019-08-14 16:19:48.812500,0.58
2019-08-14 16:19:48.828125,1.43
2019-08-14 16:19:48.843750,-1.46
2019-08-14 16:19:48.859375,-2.73
2019-08-14 16:19:48.875000,2.07
2019-08-14 16:19:48.890625,13.53
2019-08-14 16:19:48.906250,28.07
2019-08-14 16:19:48.921875,39.74
2019-08-14 16:19:48.937500,43.82
2019-08-14 16:19:48.953125,39.33
2019-08-14 16:19:48.968750,29.55
2019-08-14 16:19:48.984375,19.72
2019-08-14 16:19:49.000000,14.12
2019-08-14 16:19:49.015625,13.65
2019-08-14 16:19:49.031250,15.54
2019-08-14 16:19:49.046875,15.38
2019-08-14 16:19:49.062500,9.93
2019-08-14 16:19:49.078125,-0.82
2019-08-14 16:19:49.093750,-13.53
2019-08-14 16:19:49.109375,-23.47
2019-08-14 16:19:49.125000,-27.21
2019-08-14 16:19:49.140625,-24.61
2019-08-14 16:19:49.156250,-18.89
2019-08-14 16:19:49.171875,-14.85
2019-08-14 16:19:49.187500,-15.96
2019-08-14 16:19:49.203125,-22.45
2019-08-14 16:19:49.218750,-31.05
2019-08-14 16:19:49.234375,-36.98
2019-08-14 16:19:49.250000,-36.72
2019-08-14 16:19:49.265625,-30.12
2019-08-14 16:19:49.281250,-20.56
2019-08-14 16:19:49.296875,-13.0
2019-08-14 16:19:49.312500,-10.95
2019-08-14 16:19:49.328125,-14.28
2019-08-14 16:19:49.343750,-19.34
2019-08-14 16:19:49.359375,-21.02
2019-08-14 16:19:49.375000,-15.83
2019-08-14 16:19:49.390625,-4.24
2019-08-14 16:19:49.406250,9.49
2019-08-14 16:19:49.421875,19.65
2019-08-14 16:19:49.437500,22.52
2019-08-14 16:19:49.453125,18.61
2019-08-14 16:19:49.468750,12.45
2019-08-14 16:19:49.484375,9.7
2019-08-14 16:19:49.500000,13.66
2019-08-14 16:19:49.515625,23.17
2019-08-14 16:19:49.531250,33.0
2019-08-14 16:19:49.546875,37.07
2019-08-14 16:19:49.562500,32.03
2019-08-14 16:19:49.578125,19.2
2019-08-14 16:19:49.593750,3.92
2019-08-14 16:19:49.609375,-7.57
2019-08-14 16:19:49.625000,-11.69
2019-08-14 16:19:49.640625,-9.39
2019-08-14 16:19:49.656250,-5.24
2019-08-14 16:19:49.671875,-4.51
2019-08-14 16:19:49.687500,-9.9
2019-08-14 16:19:49.703125,-19.82
2019-08-14 16:19:49.718750,-29.32
2019-08-14 16:19:49.734375,-32.98
2019-08-14 16:19:49.750000,-27.93
2019-08-14 16:19:49.765625,-15.6
2019-08-14 16:19:49.781250,-0.99
2019-08-14 16:19:49.796875,10.1
2019-08-14 16:19:49.812500,13.98
2019-08-14 16:19:49.828125,11.04
2019-08-14 16:19:49.843750,5.2
2019-08-14 16:19:49.859375,1.41
2019-08-14 16:19:49.875000,2.81
2019-08-14 16:19:49.890625,8.98
2019-08-14 16:19:49.906250,16.45
2019-08-14 16:19:49.921875,21.07
2019-08-14 16:19:49.937500,20.56
2019-08-14 16:19:49.953125,15.85
2019-08-14 16:19:49.968750,10.32
2019-08-14 16:19:49.984375,7.46
2019-08-14 16:19:50.000000,8.44
2019-08-14 16:19:50.015625,11.36
2019-08-14 16:19:50.031250,12.15
2019-08-14 16:19:50.046875,7.49
2019-08-14 16:19:50.062500,-2.9
2019-08-14 16:19:50.078125,-15.68
2019-08-14 16:19:50.093750,-25.35
2019-08-14 16:19:50.109375,-27.33
2019-08-14 16:19:50.125000,-20.71
2019-08-14 16:19:50.140625,-9.06
2019-08-14 16:19:50.156250,1.42
2019-08-14 16:19:50.171875,5.32
2019-08-14 16:19:50.187500,1.1
2019-08-14 16:19:50.203125,-7.86
2019-08-14 16:19:50.218750,-15.15
2019-08-14 16:19:50.234375,-15.01
2019-08-14 16:19:50.250000,-5.44
2019-08-14 16:19:50.265625,10.49
2019-08-14 16:19:50.281250,26.33
2019-08-14 16:19:50.296875,35.94
2019-08-14 16:19:50.312500,36.64
2019-08-14 16:19:50.328125,30.57
2019-08-14 16:19:50.343750,23.16
2019-08-14 16:19:50.359375,19.63
2019-08-14 16:19:50.375000,22.05
2019-08-14 16:19:50.390625,28.13
2019-08-14 16:19:50.406250,32.68
2019-08-14 16:19:50.421875,31.06
2019-08-14 16:19:50.437500,22.13
2019-08-14 16:19:50.453125,9.03
2019-08-14 16:19:50.468750,-2.57
2019-08-14 16:19:50.484375,-7.88
2019-08-14 16:19:50.500000,-6.04
2019-08-14 16:19:50.515625,-0.55
2019-08-14 16:19:50.531250,2.67
2019-08-14 16:19:50.546875,-1.09
2019-08-14 16:19:50.562500,-12.21
2019-08-14 16:19:50.578125,-26.63
2019-08-14 16:19:50.593750,-37.99
2019-08-14 16:19:50.609375,-41.51
2019-08-14 16:19:50.625000,-36.72
2019-08-14 16:19:50.640625,-27.8
2019-08-14 16:19:50.656250,-21.03
2019-08-14 16:19:50.671875,-21.13
2019-08-14 16:19:50.687500,-28.32
2019-08-14 16:19:50.703125,-38.09
2019-08-14 16:19:50.718750,-43.84
2019-08-14 16:19:50.734375,-40.71
2019-08-14 16:19:50.750000,-28.43
2019-08-14 16:19:50.765625,-11.44
2019-08-14 16:19:50.781250,3.5
2019-08-14 16:19:50.796875,11.31
2019-08-14 16:19:50.812500,11.26
2019-08-14 16:19:50.828125,7.07
2019-08-14 16:19:50.843750,4.37
2019-08-14 16:19:50.859375,7.14
2019-08-14 16:19:50.875000,15.17
2019-08-14 16:19:50.890625,24.34
2019-08-14 16:19:50.906250,29.11
2019-08-14 16:19:50.921875,25.9
2019-08-14 16:19:50.937500,15.25
2019-08-14 16:19:50.953125,1.6
2019-08-14 16:19:50.968750,-9.27
2019-08-14 16:19:50.984375,-13.25
2019-08-14 16:19:51.000000,-10.09
2019-08-14 16:19:51.015625,-3.12
2019-08-14 16:19:51.031250,2.92
2019-08-14 16:19:51.046875,4.83
2019-08-14 16:19:51.062500,2.83
2019-08-14 16:19:51.078125,0.23
2019-08-14 16:19:51.093750,1.15
2019-08-14 16:19:51.109375,7.59
2019-08-14 16:19:51.125000,17.81
2019-08-14 16:19:51.140625,26.8
2019-08-14 16:19:51.156250,29.26
2019-08-14 16:19:51.171875,22.71
2019-08-14 16:19:51.187500,9.3
2019-08-14 16:19:51.203125,-5.19
2019-08-14 16:19:51.218750,-14.71
2019-08-14 16:19:51.234375,-16.22
2019-08-14 16:19:51.250000,-11.47
2019-08-14 16:19:51.265625,-5.8
2019-08-14 16:19:51.281250,-4.86
2019-08-14 16:19:51.296875,-10.99
2019-08-14 16:19:51.312500,-21.86
2019-08-14 16:19:51.328125,-31.65
2019-08-14 16:19:51.343750,-34.64
2019-08-14 16:19:51.359375,-28.49
2019-08-14 16:19:51.375000,-15.7
2019-08-14 16:19:51.390625,-2.31
2019-08-14 16:19:51.406250,5.63
2019-08-14 16:19:51.421875,5.52
2019-08-14 16:19:51.437500,-0.41
2019-08-14 16:19:51.453125,-6.53
2019-08-14 16:19:51.468750,-7.19
2019-08-14 16:19:51.484375,-0.07
2019-08-14 16:19:51.500000,12.57
2019-08-14 16:19:51.515625,25.24
2019-08-14 16:19:51.531250,32.47
2019-08-14 16:19:51.546875,31.98
2019-08-14 16:19:51.562500,25.75
2019-08-14 16:19:51.578125,18.64
2019-08-14 16:19:51.593750,15.27
2019-08-14 16:19:51.609375,17.26
2019-08-14 16:19:51.625000,22.53
2019-08-14 16:19:51.640625,26.85
2019-08-14 16:19:51.656250,26.67
2019-08-14 16:19:51.671875,21.28
2019-08-14 16:19:51.687500,13.42
2019-08-14 16:19:51.703125,7.38
2019-08-14 16:19:51.718750,6.39
2019-08-14 16:19:51.734375,10.49
2019-08-14 16:19:51.750000,16.37
2019-08-14 16:19:51.765625,19.07
2019-08-14 16:19:51.781250,14.95
2019-08-14 16:19:51.796875,3.86
2019-08-14 16:19:51.812500,-10.72
2019-08-14 16:19:51.828125,-23.3
2019-08-14 16:19:51.843750,-29.54
2019-08-14 16:19:51.859375,-28.6
2019-08-14 16:19:51.875000,-23.44
2019-08-14 16:19:51.890625,-19.12
2019-08-14 16:19:51.906250,-19.83
2019-08-14 16:19:51.921875,-26.34
2019-08-14 16:19:51.937500,-35.66
2019-08-14 16:19:51.953125,-42.88
2019-08-14 16:19:51.968750,-44.15
2019-08-14 16:19:51.984375,-39.0
2019-08-14 16:19:52.000000,-30.68
2019-08-14 16:19:52.015625,-24.15
2019-08-14 16:19:52.031250,-23.02
2019-08-14 16:19:52.046875,-27.27
2019-08-14 16:19:52.062500,-33.14
2019-08-14 16:19:52.078125,-35.27
2019-08-14 16:19:52.093750,-30.02
2019-08-14 16:19:52.109375,-17.71
2019-08-14 16:19:52.125000,-2.75
2019-08-14 16:19:52.140625,8.6
2019-08-14 16:19:52.156250,11.92
2019-08-14 16:19:52.171875,7.18
2019-08-14 16:19:52.187500,-1.14
2019-08-14 16:19:52.203125,-6.6
2019-08-14 16:19:52.218750,-4.46
2019-08-14 16:19:52.234375,5.57
2019-08-14 16:19:52.250000,19.17
2019-08-14 16:19:52.265625,29.98
2019-08-14 16:19:52.281250,33.44
2019-08-14 16:19:52.296875,29.38
2019-08-14 16:19:52.312500,22.03
2019-08-14 16:19:52.328125,17.3
2019-08-14 16:19:52.343750,19.12
2019-08-14 16:19:52.359375,26.95
2019-08-14 16:19:52.375000,36.38
2019-08-14 16:19:52.390625,41.88
2019-08-14 16:19:52.406250,40.4
2019-08-14 16:19:52.421875,33.33
2019-08-14 16:19:52.437500,25.61
2019-08-14 16:19:52.453125,22.77
2019-08-14 16:19:52.468750,27.38
2019-08-14 16:19:52.484375,37.3
2019-08-14 16:19:52.500000,46.78
2019-08-14 16:19:52.515625,49.77
2019-08-14 16:19:52.531250,43.22
2019-08-14 16:19:52.546875,28.88
2019-08-14 16:19:52.562500,12.29
2019-08-14 16:19:52.578125,-0.35
2019-08-14 16:19:52.593750,-5.43
2019-08-14 16:19:52.609375,-3.61
2019-08-14 16:19:52.625000,1.08
2019-08-14 16:19:52.640625,3.91
2019-08-14 16:19:52.656250,2.26
2019-08-14 16:19:52.671875,-3.09
2019-08-14 16:19:52.687500,-8.82
2019-08-14 16:19:52.703125,-11.53
2019-08-14 16:19:52.718750,-10.11
2019-08-14 16:19:52.734375,-6.55
2019-08-14 16:19:52.750000,-4.77
2019-08-14 16:19:52.765625,-8.13
2019-08-14 16:19:52.781250,-17.28
2019-08-14 16:19:52.796875,-29.51
2019-08-14 16:19:52.812500,-40.14
2019-08-14 16:19:52.828125,-44.93
2019-08-14 16:19:52.843750,-42.53
2019-08-14 16:19:52.859375,-35.1
2019-08-14 16:19:52.875000,-27.09
2019-08-14 16:19:52.890625,-22.94
2019-08-14 16:19:52.906250,-24.58
2019-08-14 16:19:52.921875,-30.36
2019-08-14 16:19:52.937500,-36.21
2019-08-14 16:19:52.953125,-37.78
2019-08-14 16:19:52.968750,-32.93
2019-08-14 16:19:52.984375,-23.17
2019-08-14 16:19:53.000000,-12.55
2019-08-14 16:19:53.015625,-5.23
2019-08-14 16:19:53.031250,-3.02
2019-08-14 16:19:53.046875,-4.1
2019-08-14 16:19:53.062500,-4.18
2019-08-14 16:19:53.078125,0.59
2019-08-14 16:19:53.093750,11.12
2019-08-14 16:19:53.109375,24.54
2019-08-14 16:19:53.125000,35.59
2019-08-14 16:19:53.140625,39.89
2019-08-14 16:19:53.156250,36.63
2019-08-14 16:19:53.171875,29.07
2019-08-14 16:19:53.187500,22.87
2019-08-14 16:19:53.203125,22.5
2019-08-14 16:19:53.218750,28.62
2019-08-14 16:19:53.234375,37.51
2019-08-14 16:19:53.250000,43.11
2019-08-14 16:19:53.265625,40.54
2019-08-14 16:19:53.281250,28.81
2019-08-14 16:19:53.296875,11.5
2019-08-14 16:19:53.312500,-5.28
2019-08-14 16:19:53.328125,-16.0
2019-08-14 16:19:53.343750,-18.75
2019-08-14 16:19:53.359375,-15.96
2019-08-14 16:19:53.375000,-12.8
2019-08-14 16:19:53.390625,-14.0
2019-08-14 16:19:53.406250,-21.11
2019-08-14 16:19:53.421875,-31.48
2019-08-14 16:19:53.437500,-40.11
2019-08-14 16:19:53.453125,-42.74
2019-08-14 16:19:53.468750,-38.38
2019-08-14 16:19:53.484375,-30.19
2019-08-14 16:19:53.500000,-23.32
2019-08-14 16:19:53.515625,-21.74
2019-08-14 16:19:53.531250,-25.56
2019-08-14 16:19:53.546875,-30.78
2019-08-14 16:19:53.562500,-31.79
2019-08-14 16:19:53.578125,-24.92
2019-08-14 16:19:53.593750,-10.88
2019-08-14 16:19:53.609375,5.33
2019-08-14 16:19:53.625000,17.39
2019-08-14 16:19:53.640625,21.43
2019-08-14 16:19:53.656250,18.27
2019-08-14 16:19:53.671875,12.88
2019-08-14 16:19:53.687500,11.23
2019-08-14 16:19:53.703125,16.55
2019-08-14 16:19:53.718750,27.3
2019-08-14 16:19:53.734375,38.19
2019-08-14 16:19:53.750000,43.22
2019-08-14 16:19:53.765625,39.24
2019-08-14 16:19:53.781250,27.73
2019-08-14 16:19:53.796875,13.74
2019-08-14 16:19:53.812500,2.9
2019-08-14 16:19:53.828125,-1.69
2019-08-14 16:19:53.843750,-1.03
2019-08-14 16:19:53.859375,0.66
2019-08-14 16:19:53.875000,-1.22
2019-08-14 16:19:53.890625,-8.62
2019-08-14 16:19:53.906250,-19.51
2019-08-14 16:19:53.921875,-28.92
2019-08-14 16:19:53.937500,-31.61
2019-08-14 16:19:53.953125,-25.28
2019-08-14 16:19:53.968750,-11.83
2019-08-14 16:19:53.984375,3.34
2019-08-14 16:19:54.000000,14.35
2019-08-14 16:19:54.015625,17.81
2019-08-14 16:19:54.031250,14.4
2019-08-14 16:19:54.046875,8.19
2019-08-14 16:19:54.062500,3.94
2019-08-14 16:19:54.078125,4.14
2019-08-14 16:19:54.093750,7.6
2019-08-14 16:19:54.109375,10.23
2019-08-14 16:19:54.125000,7.76
2019-08-14 16:19:54.140625,-1.46
2019-08-14 16:19:54.156250,-15.12
2019-08-14 16:19:54.171875,-28.05
2019-08-14 16:19:54.187500,-34.96
2019-08-14 16:19:54.203125,-33.28
2019-08-14 16:19:54.218750,-24.6
2019-08-14 16:19:54.234375,-13.64
2019-08-14 16:19:54.250000,-5.75
2019-08-14 16:19:54.265625,-3.9
2019-08-14 16:19:54.281250,-7.23
2019-08-14 16:19:54.296875,-11.81
2019-08-14 16:19:54.312500,-13.19
2019-08-14 16:19:54.328125,-9.26
2019-08-14 16:19:54.343750,-1.56
2019-08-14 16:19:54.359375,5.69
2019-08-14 16:19:54.375000,8.16
2019-08-14 16:19:54.390625,4.4
2019-08-14 16:19:54.406250,-2.95
2019-08-14 16:19:54.421875,-8.67
2019-08-14 16:19:54.437500,-7.88
2019-08-14 16:19:54.453125,0.65
2019-08-14 16:19:54.468750,13.73
2019-08-14 16:19:54.484375,25.28
2019-08-14 16:19:54.500000,29.97
2019-08-14 16:19:54.515625,26.4
2019-08-14 16:19:54.531250,17.97
2019-08-14 16:19:54.546875,10.72
2019-08-14 16:19:54.562500,9.72
2019-08-14 16:19:54.578125,15.92
2019-08-14 16:19:54.593750,25.63
2019-08-14 16:19:54.609375,32.87
2019-08-14 16:19:54.625000,33.08
2019-08-14 16:19:54.640625,25.91
2019-08-14 16:19:54.656250,15.43
2019-08-14 16:19:54.671875,7.71
2019-08-14 16:19:54.687500,7.06
2019-08-14 16:19:54.703125,13.56
2019-08-14 16:19:54.718750,22.83
2019-08-14 16:19:54.734375,28.84
2019-08-14 16:19:54.750000,27.44
2019-08-14 16:19:54.765625,18.81
2019-08-14 16:19:54.781250,7.3
2019-08-14 16:19:54.796875,-1.34
2019-08-14 16:19:54.812500,-3.36
2019-08-14 16:19:54.828125,0.76
2019-08-14 16:19:54.843750,6.94
2019-08-14 16:19:54.859375,10.07
2019-08-14 16:19:54.875000,7.05
2019-08-14 16:19:54.890625,-1.35
2019-08-14 16:19:54.906250,-11.19
2019-08-14 16:19:54.921875,-18.09
2019-08-14 16:19:54.937500,-19.65
2019-08-14 16:19:54.953125,-17.1
2019-08-14 16:19:54.968750,-14.2
2019-08-14 16:19:54.984375,-15.02
2019-08-14 16:19:55.000000,-21.42
2019-08-14 16:19:55.015625,-31.76
2019-08-14 16:19:55.031250,-41.61
2019-08-14 16:19:55.046875,-46.18
2019-08-14 16:19:55.062500,-42.82
2019-08-14 16:19:55.078125,-32.49
2019-08-14 16:19:55.093750,-19.46
2019-08-14 16:19:55.109375,-9.09
2019-08-14 16:19:55.125000,-4.98
2019-08-14 16:19:55.140625,-7.15
2019-08-14 16:19:55.156250,-12.02
2019-08-14 16:19:55.171875,-14.49
2019-08-14 16:19:55.187500,-10.94
2019-08-14 16:19:55.203125,-1.17
2019-08-14 16:19:55.218750,11.37
2019-08-14 16:19:55.234375,21.73
2019-08-14 16:19:55.250000,26.37
2019-08-14 16:19:55.265625,25.19
2019-08-14 16:19:55.281250,21.4
2019-08-14 16:19:55.296875,19.3
2019-08-14 16:19:55.312500,21.54
2019-08-14 16:19:55.328125,27.26
2019-08-14 16:19:55.343750,32.74
2019-08-14 16:19:55.359375,33.82
2019-08-14 16:19:55.375000,28.47
2019-08-14 16:19:55.390625,18.33
2019-08-14 16:19:55.406250,7.93
2019-08-14 16:19:55.421875,1.82
2019-08-14 16:19:55.437500,2.08
2019-08-14 16:19:55.453125,6.62
2019-08-14 16:19:55.468750,10.56
2019-08-14 16:19:55.484375,9.01
2019-08-14 16:19:55.500000,-0.18
2019-08-14 16:19:55.515625,-14.86
2019-08-14 16:19:55.531250,-29.79
2019-08-14 16:19:55.546875,-39.47
2019-08-14 16:19:55.562500,-41.15
2019-08-14 16:19:55.578125,-36.05
2019-08-14 16:19:55.593750,-28.61
2019-08-14 16:19:55.609375,-23.79
2019-08-14 16:19:55.625000,-24.38
2019-08-14 16:19:55.640625,-29.6
2019-08-14 16:19:55.656250,-35.8
2019-08-14 16:19:55.671875,-38.79
2019-08-14 16:19:55.687500,-36.37
2019-08-14 16:19:55.703125,-29.47
2019-08-14 16:19:55.718750,-21.37
2019-08-14 16:19:55.734375,-15.67
2019-08-14 16:19:55.750000,-13.83
2019-08-14 16:19:55.765625,-14.33
2019-08-14 16:19:55.781250,-13.56
2019-08-14 16:19:55.796875,-8.18
2019-08-14 16:19:55.812500,2.46
2019-08-14 16:19:55.828125,15.54
2019-08-14 16:19:55.843750,25.92
2019-08-14 16:19:55.859375,29.13
2019-08-14 16:19:55.875000,23.95
2019-08-14 16:19:55.890625,13.42
2019-08-14 16:19:55.906250,3.47
2019-08-14 16:19:55.921875,-0.5
2019-08-14 16:19:55.937500,3.58
2019-08-14 16:19:55.953125,13.15
2019-08-14 16:19:55.968750,22.62
2019-08-14 16:19:55.984375,26.8
2019-08-14 16:19:56.000000,23.8
2019-08-14 16:19:56.015625,16.23
2019-08-14 16:19:56.031250,9.42
2019-08-14 16:19:56.046875,8.22
2019-08-14 16:19:56.062500,13.83
2019-08-14 16:19:56.078125,23.11
2019-08-14 16:19:56.093750,30.33
2019-08-14 16:19:56.109375,30.63
2019-08-14 16:19:56.125000,22.93
2019-08-14 16:19:56.140625,10.5
2019-08-14 16:19:56.156250,-1.04
2019-08-14 16:19:56.171875,-6.98
2019-08-14 16:19:56.187500,-6.38
2019-08-14 16:19:56.203125,-2.48
2019-08-14 16:19:56.218750,-0.24
2019-08-14 16:19:56.234375,-3.13
2019-08-14 16:19:56.250000,-10.61
2019-08-14 16:19:56.265625,-18.41
2019-08-14 16:19:56.281250,-21.04
2019-08-14 16:19:56.296875,-15.43
2019-08-14 16:19:56.312500,-2.95
2019-08-14 16:19:56.328125,11.23
2019-08-14 16:19:56.343750,21.06
2019-08-14 16:19:56.359375,23.22
2019-08-14 16:19:56.375000,18.99
2019-08-14 16:19:56.390625,13.29
2019-08-14 16:19:56.406250,11.51
2019-08-14 16:19:56.421875,16.2
2019-08-14 16:19:56.437500,25.26
2019-08-14 16:19:56.453125,33.2
2019-08-14 16:19:56.468750,34.18
2019-08-14 16:19:56.484375,25.52
2019-08-14 16:19:56.500000,9.44
2019-08-14 16:19:56.515625,-8.16
2019-08-14 16:19:56.531250,-20.88
2019-08-14 16:19:56.546875,-25.21
2019-08-14 16:19:56.562500,-22.36
2019-08-14 16:19:56.578125,-17.17
2019-08-14 16:19:56.593750,-15.25
2019-08-14 16:19:56.609375,-19.46
2019-08-14 16:19:56.625000,-28.36
2019-08-14 16:19:56.640625,-37.0
2019-08-14 16:19:56.656250,-40.14
2019-08-14 16:19:56.671875,-35.37
2019-08-14 16:19:56.687500,-24.4
