2019-07-24 18:22:15.000000,-0.0
2019-07-24 18:22:15.015625,-0.0
2019-07-24 18:22:15.031250,-0.0
2019-07-24 18:22:15.046875,-0.0
2019-07-24 18:22:15.062500,-0.0
2019-07-24 18:22:15.078125,-0.0
2019-07-24 18:22:15.093750,-0.0
2019-07-24 18:22:15.109375,-0.0
2019-07-24 18:22:15.125000,-0.0
2019-07-24 18:22:15.140625,-0.0
2019-07-24 18:22:15.156250,0.0
2019-07-24 18:22:15.171875,0.01
2019-07-24 18:22:15.187500,0.01
2019-07-24 18:22:15.203125,-0.0
2019-07-24 18:22:15.218750,-0.03
2019-07-24 18:22:15.234375,-0.05
2019-07-24 18:22:15.250000,-0.05
2019-07-24 18:22:15.265625,0.0
2019-07-24 18:22:15.281250,0.13
2019-07-24 18:22:15.296875,0.36
2019-07-24 18:22:15.312500,0.66
2019-07-24 18:22:15.328125,1.01
2019-07-24 18:22:15.343750,1.37
2019-07-24 18:22:15.359375,1.72
2019-07-24 18:22:15.375000,2.06
2019-07-24 18:22:15.390625,2.4
2019-07-24 18:22:15.406250,2.79
2019-07-24 18:22:15.421875,3.24
2019-07-24 18:22:15.437500,3.8
2019-07-24 18:22:15.453125,4.42
2019-07-24 18:22:15.468750,5.07
2019-07-24 18:22:15.484375,5.69
2019-07-24 18:22:15.500000,6.25
2019-07-24 18:22:15.515625,6.76
2019-07-24 18:22:15.531250,7.3
2019-07-24 18:22:15.546875,7.93
2019-07-24 18:22:15.562500,8.7
2019-07-24 18:22:15.578125,9.72
2019-07-24 18:22:15.593750,10.91
2019-07-24 18:22:15.609375,12.16
2019-07-24 18:22:15.625000,13.35
2019-07-24 18:22:15.640625,14.42
2019-07-24 18:22:15.656250,15.43
2019-07-24 18:22:15.671875,16.53
2019-07-24 18:22:15.687500,17.95
2019-07-24 18:22:15.703125,19.82
2019-07-24 18:22:15.718750,22.37
2019-07-24 18:22:15.734375,25.41
2019-07-24 18:22:15.750000,28.67
2019-07-24 18:22:15.765625,31.85
2019-07-24 18:22:15.781250,34.79
2019-07-24 18:22:15.796875,37.56
2019-07-24 18:22:15.812500,40.5
2019-07-24 18:22:15.828125,44.04
2019-07-24 18:22:15.843750,48.52
2019-07-24 18:22:15.859375,54.32
2019-07-24 18:22:15.875000,61.09
2019-07-24 18:22:15.890625,68.31
2019-07-24 18:22:15.906250,75.41
2019-07-24 18:22:15.921875,82.04
2019-07-24 18:22:15.937500,88.29
2019-07-24 18:22:15.953125,94.67
2019-07-24 18:22:15.968750,101.91
2019-07-24 18:22:15.984375,110.57
2019-07-24 18:22:16.000000,121.19
2019-07-24 18:22:16.015625,133.29
2019-07-24 18:22:16.031250,146.06
2019-07-24 18:22:16.046875,158.63
2019-07-24 18:22:16.062500,170.43
2019-07-24 18:22:16.078125,181.53
2019-07-24 18:22:16.093750,192.59
2019-07-24 18:22:16.109375,205.01
2019-07-24 18:22:16.125000,217.52
2019-07-24 18:22:16.140625,232.42
2019-07-24 18:22:16.156250,250.3
2019-07-24 18:22:16.171875,271.27
2019-07-24 18:22:16.187500,294.09
2019-07-24 18:22:16.203125,315.85
2019-07-24 18:22:16.218750,332.25
2019-07-24 18:22:16.234375,338.7
2019-07-24 18:22:16.250000,331.88
2019-07-24 18:22:16.265625,310.96
2019-07-24 18:22:16.281250,278.34
2019-07-24 18:22:16.296875,237.88
2019-07-24 18:22:16.312500,193.87
2019-07-24 18:22:16.328125,149.5
2019-07-24 18:22:16.343750,106.29
2019-07-24 18:22:16.359375,64.5
2019-07-24 18:22:16.375000,24.04
2019-07-24 18:22:16.390625,-14.79
2019-07-24 18:22:16.406250,-51.2
2019-07-24 18:22:16.421875,-83.86
2019-07-24 18:22:16.437500,-112.11
2019-07-24 18:22:16.453125,-135.72
2019-07-24 18:22:16.468750,-155.12
2019-07-24 18:22:16.484375,-170.73
2019-07-24 18:22:16.500000,-182.67
2019-07-24 18:22:16.515625,-190.72
2019-07-24 18:22:16.531250,-194.46
2019-07-24 18:22:16.546875,-193.79
2019-07-24 18:22:16.562500,-188.95
2019-07-24 18:22:16.578125,-180.94
2019-07-24 18:22:16.593750,-171.13
2019-07-24 18:22:16.609375,-160.91
2019-07-24 18:22:16.625000,-151.31
2019-07-24 18:22:16.640625,-142.86
2019-07-24 18:22:16.656250,-135.57
2019-07-24 18:22:16.671875,-128.76
2019-07-24 18:22:16.687500,-121.87
2019-07-24 18:22:16.703125,-114.53
2019-07-24 18:22:16.718750,-106.89
2019-07-24 18:22:16.734375,-99.34
2019-07-24 18:22:16.750000,-92.33
2019-07-24 18:22:16.765625,-86.19
2019-07-24 18:22:16.781250,-80.95
2019-07-24 18:22:16.796875,-76.38
2019-07-24 18:22:16.812500,-72.12
2019-07-24 18:22:16.828125,-67.89
2019-07-24 18:22:16.843750,-63.52
2019-07-24 18:22:16.859375,-59.06
2019-07-24 18:22:16.875000,-54.7
2019-07-24 18:22:16.890625,-50.66
2019-07-24 18:22:16.906250,-47.06
2019-07-24 18:22:16.921875,-43.93
2019-07-24 18:22:16.937500,-41.13
2019-07-24 18:22:16.953125,-38.5
2019-07-24 18:22:16.968750,-35.93
2019-07-24 18:22:16.984375,-33.36
2019-07-24 18:22:17.000000,-30.82
2019-07-24 18:22:17.015625,-28.38
2019-07-24 18:22:17.031250,-26.14
2019-07-24 18:22:17.046875,-24.16
2019-07-24 18:22:17.062500,-22.47
2019-07-24 18:22:17.078125,-21.06
2019-07-24 18:22:17.093750,-19.89
2019-07-24 18:22:17.109375,-18.96
2019-07-24 18:22:17.125000,-18.25
2019-07-24 18:22:17.140625,-17.75
2019-07-24 18:22:17.156250,-17.42
2019-07-24 18:22:17.171875,-17.25
2019-07-24 18:22:17.187500,-17.19
2019-07-24 18:22:17.203125,-17.2
2019-07-24 18:22:17.218750,-17.24
2019-07-24 18:22:17.234375,-17.28
2019-07-24 18:22:17.250000,-17.3
2019-07-24 18:22:17.265625,-17.28
2019-07-24 18:22:17.281250,-17.22
2019-07-24 18:22:17.296875,-17.08
2019-07-24 18:22:17.312500,-16.86
2019-07-24 18:22:17.328125,-16.58
2019-07-24 18:22:17.343750,-16.24
2019-07-24 18:22:17.359375,-15.87
2019-07-24 18:22:17.375000,-15.46
2019-07-24 18:22:17.390625,-15.08
2019-07-24 18:22:17.406250,-14.7
2019-07-24 18:22:17.421875,-14.4
2019-07-24 18:22:17.437500,-14.16
2019-07-24 18:22:17.453125,-14.03
2019-07-24 18:22:17.468750,-14.01
2019-07-24 18:22:17.484375,-14.11
2019-07-24 18:22:17.500000,-14.32
2019-07-24 18:22:17.515625,-14.61
2019-07-24 18:22:17.531250,-14.92
2019-07-24 18:22:17.546875,-15.17
2019-07-24 18:22:17.562500,-15.3
2019-07-24 18:22:17.578125,-15.26
2019-07-24 18:22:17.593750,-15.04
2019-07-24 18:22:17.609375,-14.66
2019-07-24 18:22:17.625000,-14.17
2019-07-24 18:22:17.640625,-13.65
2019-07-24 18:22:17.656250,-13.14
2019-07-24 18:22:17.671875,-12.73
2019-07-24 18:22:17.687500,-12.44
2019-07-24 18:22:17.703125,-12.27
2019-07-24 18:22:17.718750,-12.26
2019-07-24 18:22:17.734375,-12.42
2019-07-24 18:22:17.750000,-12.76
2019-07-24 18:22:17.765625,-13.28
2019-07-24 18:22:17.781250,-13.92
2019-07-24 18:22:17.796875,-14.58
2019-07-24 18:22:17.812500,-15.11
2019-07-24 18:22:17.828125,-15.38
2019-07-24 18:22:17.843750,-15.29
2019-07-24 18:22:17.859375,-14.86
2019-07-24 18:22:17.875000,-14.19
2019-07-24 18:22:17.890625,-13.52
2019-07-24 18:22:17.906250,-13.03
2019-07-24 18:22:17.921875,-12.93
2019-07-24 18:22:17.937500,-13.27
2019-07-24 18:22:17.953125,-14.03
2019-07-24 18:22:17.968750,-15.09
2019-07-24 18:22:17.984375,-16.3
2019-07-24 18:22:18.000000,-17.6
2019-07-24 18:22:18.015625,-19.05
2019-07-24 18:22:18.031250,-20.82
2019-07-24 18:22:18.046875,-23.09
2019-07-24 18:22:18.062500,-25.95
2019-07-24 18:22:18.078125,-29.29
2019-07-24 18:22:18.093750,-32.82
2019-07-24 18:22:18.109375,-36.13
2019-07-24 18:22:18.125000,-38.92
2019-07-24 18:22:18.140625,-41.1
2019-07-24 18:22:18.156250,-42.97
2019-07-24 18:22:18.171875,-45.1
2019-07-24 18:22:18.187500,-48.12
2019-07-24 18:22:18.203125,-52.42
2019-07-24 18:22:18.218750,-57.92
2019-07-24 18:22:18.234375,-64.11
2019-07-24 18:22:18.250000,-70.19
2019-07-24 18:22:18.265625,-75.5
2019-07-24 18:22:18.281250,-79.87
2019-07-24 18:22:18.296875,-83.77
2019-07-24 18:22:18.312500,-88.17
2019-07-24 18:22:18.328125,-94.07
2019-07-24 18:22:18.343750,-101.96
2019-07-24 18:22:18.359375,-111.64
2019-07-24 18:22:18.375000,-122.11
2019-07-24 18:22:18.390625,-132.25
2019-07-24 18:22:18.406250,-141.21
2019-07-24 18:22:18.421875,-148.95
2019-07-24 18:22:18.437500,-156.23
2019-07-24 18:22:18.453125,-164.22
2019-07-24 18:22:18.468750,-173.93
2019-07-24 18:22:18.484375,-185.86
2019-07-24 18:22:18.500000,-200.23
2019-07-24 18:22:18.515625,-217.05
2019-07-24 18:22:18.531250,-236.46
2019-07-24 18:22:18.546875,-257.82
2019-07-24 18:22:18.562500,-279.43
2019-07-24 18:22:18.578125,-298.03
2019-07-24 18:22:18.593750,-309.61
2019-07-24 18:22:18.609375,-310.74
2019-07-24 18:22:18.625000,-300.19
2019-07-24 18:22:18.640625,-279.92
2019-07-24 18:22:18.656250,-254.57
2019-07-24 18:22:18.671875,-229.47
2019-07-24 18:22:18.687500,-208.21
2019-07-24 18:22:18.703125,-191.36
2019-07-24 18:22:18.718750,-176.83
2019-07-24 18:22:18.734375,-161.96
2019-07-24 18:22:18.750000,-145.47
2019-07-24 18:22:18.765625,-128.49
2019-07-24 18:22:18.781250,-113.55
2019-07-24 18:22:18.796875,-102.9
2019-07-24 18:22:18.812500,-96.63
2019-07-24 18:22:18.828125,-92.24
2019-07-24 18:22:18.843750,-85.94
2019-07-24 18:22:18.859375,-74.68
2019-07-24 18:22:18.875000,-58.31
2019-07-24 18:22:18.890625,-39.9
2019-07-24 18:22:18.906250,-24.21
2019-07-24 18:22:18.921875,-14.87
2019-07-24 18:22:18.937500,-12.07
2019-07-24 18:22:18.953125,-12.37
2019-07-24 18:22:18.968750,-10.6
2019-07-24 18:22:18.984375,-2.88
2019-07-24 18:22:19.000000,10.86
2019-07-24 18:22:19.015625,26.94
2019-07-24 18:22:19.031250,39.9
2019-07-24 18:22:19.046875,45.88
2019-07-24 18:22:19.062500,45.0
2019-07-24 18:22:19.078125,41.48
2019-07-24 18:22:19.093750,41.08
2019-07-24 18:22:19.109375,47.77
2019-07-24 18:22:19.125000,61.28
2019-07-24 18:22:19.140625,77.41
2019-07-24 18:22:19.156250,90.36
2019-07-24 18:22:19.171875,96.2
2019-07-24 18:22:19.187500,94.84
2019-07-24 18:22:19.203125,89.97
2019-07-24 18:22:19.218750,86.93
2019-07-24 18:22:19.234375,89.4
2019-07-24 18:22:19.250000,97.61
2019-07-24 18:22:19.265625,107.88
2019-07-24 18:22:19.281250,115.29
2019-07-24 18:22:19.296875,116.33
2019-07-24 18:22:19.312500,111.38
2019-07-24 18:22:19.328125,104.66
2019-07-24 18:22:19.343750,101.61
2019-07-24 18:22:19.359375,105.96
2019-07-24 18:22:19.375000,117.0
2019-07-24 18:22:19.390625,130.19
2019-07-24 18:22:19.406250,139.23
2019-07-24 18:22:19.421875,139.99
2019-07-24 18:22:19.437500,132.71
2019-07-24 18:22:19.453125,121.93
2019-07-24 18:22:19.468750,113.91
2019-07-24 18:22:19.484375,113.02
2019-07-24 18:22:19.500000,119.42
2019-07-24 18:22:19.515625,128.86
2019-07-24 18:22:19.531250,135.36
2019-07-24 18:22:19.546875,134.32
2019-07-24 18:22:19.562500,125.43
2019-07-24 18:22:19.578125,112.49
2019-07-24 18:22:19.593750,101.36
2019-07-24 18:22:19.609375,96.4
2019-07-24 18:22:19.625000,97.79
2019-07-24 18:22:19.640625,101.56
2019-07-24 18:22:19.656250,101.66
2019-07-24 18:22:19.671875,93.98
2019-07-24 18:22:19.687500,78.7
2019-07-24 18:22:19.703125,60.47
2019-07-24 18:22:19.718750,45.81
2019-07-24 18:22:19.734375,39.41
2019-07-24 18:22:19.750000,41.58
2019-07-24 18:22:19.765625,48.23
2019-07-24 18:22:19.781250,53.46
2019-07-24 18:22:19.796875,52.98
2019-07-24 18:22:19.812500,46.43
2019-07-24 18:22:19.828125,37.29
2019-07-24 18:22:19.843750,30.52
2019-07-24 18:22:19.859375,29.41
2019-07-24 18:22:19.875000,33.58
2019-07-24 18:22:19.890625,39.32
2019-07-24 18:22:19.906250,41.88
2019-07-24 18:22:19.921875,38.44
2019-07-24 18:22:19.937500,29.88
2019-07-24 18:22:19.953125,20.4
2019-07-24 18:22:19.968750,15.09
2019-07-24 18:22:19.984375,16.9
2019-07-24 18:22:20.000000,24.78
2019-07-24 18:22:20.015625,34.18
2019-07-24 18:22:20.031250,39.56
2019-07-24 18:22:20.046875,37.67
2019-07-24 18:22:20.062500,29.37
2019-07-24 18:22:20.078125,19.29
2019-07-24 18:22:20.093750,13.06
2019-07-24 18:22:20.109375,14.03
2019-07-24 18:22:20.125000,21.25
2019-07-24 18:22:20.140625,29.97
2019-07-24 18:22:20.156250,34.25
2019-07-24 18:22:20.171875,30.49
2019-07-24 18:22:20.187500,19.56
2019-07-24 18:22:20.203125,6.28
2019-07-24 18:22:20.218750,-3.23
2019-07-24 18:22:20.234375,-4.97
2019-07-24 18:22:20.250000,0.53
2019-07-24 18:22:20.265625,8.83
2019-07-24 18:22:20.281250,14.07
2019-07-24 18:22:20.296875,12.66
2019-07-24 18:22:20.312500,5.3
2019-07-24 18:22:20.328125,-3.47
2019-07-24 18:22:20.343750,-7.86
2019-07-24 18:22:20.359375,-4.55
2019-07-24 18:22:20.375000,5.49
2019-07-24 18:22:20.390625,17.28
2019-07-24 18:22:20.406250,24.69
2019-07-24 18:22:20.421875,23.91
2019-07-24 18:22:20.437500,15.53
2019-07-24 18:22:20.453125,4.05
2019-07-24 18:22:20.468750,-4.55
2019-07-24 18:22:20.484375,-6.36
2019-07-24 18:22:20.500000,-1.37
2019-07-24 18:22:20.515625,6.46
2019-07-24 18:22:20.531250,11.81
2019-07-24 18:22:20.546875,11.05
2019-07-24 18:22:20.562500,4.23
2019-07-24 18:22:20.578125,-4.81
2019-07-24 18:22:20.593750,-10.96
2019-07-24 18:22:20.609375,-10.75
2019-07-24 18:22:20.625000,-4.46
2019-07-24 18:22:20.640625,4.04
2019-07-24 18:22:20.656250,9.45
2019-07-24 18:22:20.671875,8.2
2019-07-24 18:22:20.687500,0.6
2019-07-24 18:22:20.703125,-9.3
2019-07-24 18:22:20.718750,-16.02
2019-07-24 18:22:20.734375,-15.62
2019-07-24 18:22:20.750000,-8.13
2019-07-24 18:22:20.765625,2.77
2019-07-24 18:22:20.781250,11.8
2019-07-24 18:22:20.796875,15.33
2019-07-24 18:22:20.812500,13.28
2019-07-24 18:22:20.828125,8.82
2019-07-24 18:22:20.843750,6.32
2019-07-24 18:22:20.859375,8.3
2019-07-24 18:22:20.875000,14.13
2019-07-24 18:22:20.890625,20.23
2019-07-24 18:22:20.906250,22.52
2019-07-24 18:22:20.921875,18.92
2019-07-24 18:22:20.937500,10.94
2019-07-24 18:22:20.953125,2.91
2019-07-24 18:22:20.968750,-0.52
2019-07-24 18:22:20.984375,2.79
2019-07-24 18:22:21.000000,11.0
2019-07-24 18:22:21.015625,19.15
2019-07-24 18:22:21.031250,21.92
2019-07-24 18:22:21.046875,16.8
2019-07-24 18:22:21.062500,5.74
2019-07-24 18:22:21.078125,-5.78
2019-07-24 18:22:21.093750,-11.99
2019-07-24 18:22:21.109375,-10.17
2019-07-24 18:22:21.125000,-2.32
2019-07-24 18:22:21.140625,6.07
2019-07-24 18:22:21.156250,9.31
2019-07-24 18:22:21.171875,5.04
2019-07-24 18:22:21.187500,-4.3
2019-07-24 18:22:21.203125,-12.93
2019-07-24 18:22:21.218750,-15.38
2019-07-24 18:22:21.234375,-9.57
2019-07-24 18:22:21.250000,1.66
2019-07-24 18:22:21.265625,12.57
2019-07-24 18:22:21.281250,17.52
2019-07-24 18:22:21.296875,14.4
2019-07-24 18:22:21.312500,5.52
2019-07-24 18:22:21.328125,-4.02
2019-07-24 18:22:21.343750,-9.08
2019-07-24 18:22:21.359375,-7.43
2019-07-24 18:22:21.375000,-0.69
2019-07-24 18:22:21.390625,6.68
2019-07-24 18:22:21.406250,10.26
2019-07-24 18:22:21.421875,8.05
2019-07-24 18:22:21.437500,1.62
2019-07-24 18:22:21.453125,-4.9
2019-07-24 18:22:21.468750,-7.38
2019-07-24 18:22:21.484375,-4.1
2019-07-24 18:22:21.500000,3.03
2019-07-24 18:22:21.515625,9.68
2019-07-24 18:22:21.531250,11.46
2019-07-24 18:22:21.546875,6.75
2019-07-24 18:22:21.562500,-2.38
2019-07-24 18:22:21.578125,-11.08
2019-07-24 18:22:21.593750,-14.65
2019-07-24 18:22:21.609375,-11.11
2019-07-24 18:22:21.625000,-2.59
2019-07-24 18:22:21.640625,5.98
2019-07-24 18:22:21.656250,9.7
2019-07-24 18:22:21.671875,6.53
2019-07-24 18:22:21.687500,-1.48
2019-07-24 18:22:21.703125,-9.42
2019-07-24 18:22:21.718750,-12.3
2019-07-24 18:22:21.734375,-7.95
2019-07-24 18:22:21.750000,1.62
2019-07-24 18:22:21.765625,11.56
2019-07-24 18:22:21.781250,16.8
2019-07-24 18:22:21.796875,14.94
2019-07-24 18:22:21.812500,7.69
2019-07-24 18:22:21.828125,-0.46
2019-07-24 18:22:21.843750,-4.58
2019-07-24 18:22:21.859375,-2.38
2019-07-24 18:22:21.875000,4.7
2019-07-24 18:22:21.890625,12.36
2019-07-24 18:22:21.906250,16.03
2019-07-24 18:22:21.921875,13.64
2019-07-24 18:22:21.937500,6.7
2019-07-24 18:22:21.953125,-0.5
2019-07-24 18:22:21.968750,-3.69
2019-07-24 18:22:21.984375,-1.03
2019-07-24 18:22:22.000000,5.52
2019-07-24 18:22:22.015625,11.54
2019-07-24 18:22:22.031250,12.71
2019-07-24 18:22:22.046875,7.57
2019-07-24 18:22:22.062500,-1.61
2019-07-24 18:22:22.078125,-10.1
2019-07-24 18:22:22.093750,-13.42
2019-07-24 18:22:22.109375,-10.01
2019-07-24 18:22:22.125000,-2.03
2019-07-24 18:22:22.140625,5.9
2019-07-24 18:22:22.156250,9.42
2019-07-24 18:22:22.171875,6.97
2019-07-24 18:22:22.187500,0.64
2019-07-24 18:22:22.203125,-5.08
2019-07-24 18:22:22.218750,-6.05
2019-07-24 18:22:22.234375,-0.72
2019-07-24 18:22:22.250000,8.65
2019-07-24 18:22:22.265625,17.45
2019-07-24 18:22:22.281250,21.04
2019-07-24 18:22:22.296875,17.5
2019-07-24 18:22:22.312500,8.67
2019-07-24 18:22:22.328125,-0.97
2019-07-24 18:22:22.343750,-6.6
2019-07-24 18:22:22.359375,-5.9
2019-07-24 18:22:22.375000,-0.15
2019-07-24 18:22:22.390625,6.5
2019-07-24 18:22:22.406250,9.51
2019-07-24 18:22:22.421875,6.66
2019-07-24 18:22:22.437500,-0.54
2019-07-24 18:22:22.453125,-7.78
2019-07-24 18:22:22.468750,-10.68
2019-07-24 18:22:22.484375,-7.38
2019-07-24 18:22:22.500000,0.16
2019-07-24 18:22:22.515625,7.3
2019-07-24 18:22:22.531250,9.38
2019-07-24 18:22:22.546875,4.77
2019-07-24 18:22:22.562500,-4.3
2019-07-24 18:22:22.578125,-12.82
2019-07-24 18:22:22.593750,-16.02
2019-07-24 18:22:22.609375,-12.28
2019-07-24 18:22:22.625000,-4.03
2019-07-24 18:22:22.640625,3.55
2019-07-24 18:22:22.656250,5.73
2019-07-24 18:22:22.671875,0.96
2019-07-24 18:22:22.687500,-8.02
2019-07-24 18:22:22.703125,-15.8
2019-07-24 18:22:22.718750,-17.33
2019-07-24 18:22:22.734375,-10.9
2019-07-24 18:22:22.750000,0.82
2019-07-24 18:22:22.765625,12.23
2019-07-24 18:22:22.781250,17.85
2019-07-24 18:22:22.796875,15.44
2019-07-24 18:22:22.812500,7.08
2019-07-24 18:22:22.828125,-1.96
2019-07-24 18:22:22.843750,-6.36
2019-07-24 18:22:22.859375,-3.8
2019-07-24 18:22:22.875000,3.87
2019-07-24 18:22:22.890625,11.68
2019-07-24 18:22:22.906250,14.71
2019-07-24 18:22:22.921875,10.85
2019-07-24 18:22:22.937500,2.25
2019-07-24 18:22:22.953125,-6.15
2019-07-24 18:22:22.968750,-9.4
2019-07-24 18:22:22.984375,-5.76
2019-07-24 18:22:23.000000,2.57
2019-07-24 18:22:23.015625,10.53
2019-07-24 18:22:23.031250,13.32
2019-07-24 18:22:23.046875,9.26
2019-07-24 18:22:23.062500,0.68
2019-07-24 18:22:23.078125,-7.4
2019-07-24 18:22:23.093750,-10.33
2019-07-24 18:22:23.109375,-6.56
2019-07-24 18:22:23.125000,1.47
2019-07-24 18:22:23.140625,8.85
2019-07-24 18:22:23.156250,11.17
2019-07-24 18:22:23.171875,7.17
2019-07-24 18:22:23.187500,-0.52
2019-07-24 18:22:23.203125,-7.0
2019-07-24 18:22:23.218750,-8.09
2019-07-24 18:22:23.234375,-2.82
2019-07-24 18:22:23.250000,5.89
2019-07-24 18:22:23.265625,12.99
2019-07-24 18:22:23.281250,14.23
2019-07-24 18:22:23.296875,8.76
2019-07-24 18:22:23.312500,-0.36
2019-07-24 18:22:23.328125,-7.94
2019-07-24 18:22:23.343750,-9.65
2019-07-24 18:22:23.359375,-4.63
2019-07-24 18:22:23.375000,4.09
2019-07-24 18:22:23.390625,11.36
2019-07-24 18:22:23.406250,12.89
2019-07-24 18:22:23.421875,7.76
2019-07-24 18:22:23.437500,-1.09
2019-07-24 18:22:23.453125,-8.62
2019-07-24 18:22:23.468750,-10.47
2019-07-24 18:22:23.484375,-5.69
2019-07-24 18:22:23.500000,2.91
2019-07-24 18:22:23.515625,10.26
2019-07-24 18:22:23.531250,12.12
2019-07-24 18:22:23.546875,7.31
2019-07-24 18:22:23.562500,-1.46
2019-07-24 18:22:23.578125,-9.32
2019-07-24 18:22:23.593750,-12.03
2019-07-24 18:22:23.609375,-8.51
2019-07-24 18:22:23.625000,-1.39
2019-07-24 18:22:23.640625,4.56
2019-07-24 18:22:23.656250,5.23
2019-07-24 18:22:23.671875,-0.24
2019-07-24 18:22:23.687500,-9.09
2019-07-24 18:22:23.703125,-16.35
2019-07-24 18:22:23.718750,-17.8
2019-07-24 18:22:23.734375,-12.49
2019-07-24 18:22:23.750000,-3.13
2019-07-24 18:22:23.765625,5.56
2019-07-24 18:22:23.781250,9.61
2019-07-24 18:22:23.796875,8.21
2019-07-24 18:22:23.812500,4.09
2019-07-24 18:22:23.828125,1.73
2019-07-24 18:22:23.843750,4.57
2019-07-24 18:22:23.859375,12.68
2019-07-24 18:22:23.875000,22.67
2019-07-24 18:22:23.890625,29.44
2019-07-24 18:22:23.906250,29.24
2019-07-24 18:22:23.921875,21.93
2019-07-24 18:22:23.937500,10.98
2019-07-24 18:22:23.953125,1.67
2019-07-24 18:22:23.968750,-2.0
2019-07-24 18:22:23.984375,0.31
2019-07-24 18:22:24.000000,4.92
2019-07-24 18:22:24.015625,6.26
2019-07-24 18:22:24.031250,0.27
2019-07-24 18:22:24.046875,-12.91
2019-07-24 18:22:24.062500,-28.41
2019-07-24 18:22:24.078125,-39.05
2019-07-24 18:22:24.093750,-39.04
2019-07-24 18:22:24.109375,-27.22
2019-07-24 18:22:24.125000,-7.87
2019-07-24 18:22:24.140625,11.58
2019-07-24 18:22:24.156250,24.22
2019-07-24 18:22:24.171875,27.12
2019-07-24 18:22:24.187500,22.0
2019-07-24 18:22:24.203125,13.67
2019-07-24 18:22:24.218750,6.81
2019-07-24 18:22:24.234375,3.31
2019-07-24 18:22:24.250000,1.77
2019-07-24 18:22:24.265625,-0.81
2019-07-24 18:22:24.281250,-6.69
2019-07-24 18:22:24.296875,-15.54
2019-07-24 18:22:24.312500,-24.5
2019-07-24 18:22:24.328125,-29.83
2019-07-24 18:22:24.343750,-29.25
2019-07-24 18:22:24.359375,-23.45
2019-07-24 18:22:24.375000,-15.86
2019-07-24 18:22:24.390625,-11.04
2019-07-24 18:22:24.406250,-12.13
2019-07-24 18:22:24.421875,-19.11
2019-07-24 18:22:24.437500,-28.84
2019-07-24 18:22:24.453125,-36.89
2019-07-24 18:22:24.468750,-40.08
2019-07-24 18:22:24.484375,-38.36
2019-07-24 18:22:24.500000,-34.95
2019-07-24 18:22:24.515625,-34.26
2019-07-24 18:22:24.531250,-39.36
2019-07-24 18:22:24.546875,-50.02
2019-07-24 18:22:24.562500,-62.77
2019-07-24 18:22:24.578125,-73.03
2019-07-24 18:22:24.593750,-77.66
2019-07-24 18:22:24.609375,-76.68
2019-07-24 18:22:24.625000,-73.01
2019-07-24 18:22:24.640625,-70.55
2019-07-24 18:22:24.656250,-71.73
2019-07-24 18:22:24.671875,-76.16
2019-07-24 18:22:24.687500,-81.19
2019-07-24 18:22:24.703125,-83.89
2019-07-24 18:22:24.718750,-83.12
2019-07-24 18:22:24.734375,-80.68
2019-07-24 18:22:24.750000,-80.39
2019-07-24 18:22:24.765625,-86.2
2019-07-24 18:22:24.781250,-99.81
2019-07-24 18:22:24.796875,-119.45
2019-07-24 18:22:24.812500,-140.86
2019-07-24 18:22:24.828125,-159.28
2019-07-24 18:22:24.843750,-172.36
2019-07-24 18:22:24.859375,-181.23
2019-07-24 18:22:24.875000,-189.72
2019-07-24 18:22:24.890625,-202.12
2019-07-24 18:22:24.906250,-220.58
2019-07-24 18:22:24.921875,-243.88
2019-07-24 18:22:24.937500,-267.98
2019-07-24 18:22:24.953125,-288.05
2019-07-24 18:22:24.968750,-300.62
2019-07-24 18:22:24.984375,-304.63
2019-07-24 18:22:25.000000,-300.96
2019-07-24 18:22:25.015625,-291.18
2019-07-24 18:22:25.031250,-276.33
2019-07-24 18:22:25.046875,-256.57
2019-07-24 18:22:25.062500,-231.63
2019-07-24 18:22:25.078125,-201.32
2019-07-24 18:22:25.093750,-165.52
2019-07-24 18:22:25.109375,-122.75
2019-07-24 18:22:25.125000,-71.35
2019-07-24 18:22:25.140625,-9.42
2019-07-24 18:22:25.156250,63.74
2019-07-24 18:22:25.171875,146.79
2019-07-24 18:22:25.187500,235.49
2019-07-24 18:22:25.203125,322.99
2019-07-24 18:22:25.218750,401.8
2019-07-24 18:22:25.234375,465.86
2019-07-24 18:22:25.250000,512.33
2019-07-24 18:22:25.265625,541.3
2019-07-24 18:22:25.281250,555.33
2019-07-24 18:22:25.296875,557.4
2019-07-24 18:22:25.312500,550.28
2019-07-24 18:22:25.328125,535.9
2019-07-24 18:22:25.343750,514.95
2019-07-24 18:22:25.359375,487.38
2019-07-24 18:22:25.375000,452.71
2019-07-24 18:22:25.390625,411.15
2019-07-24 18:22:25.406250,364.41
2019-07-24 18:22:25.421875,317.38
2019-07-24 18:22:25.437500,277.43
2019-07-24 18:22:25.453125,253.77
2019-07-24 18:22:25.468750,254.11
2019-07-24 18:22:25.484375,280.08
2019-07-24 18:22:25.500000,324.83
2019-07-24 18:22:25.515625,373.72
2019-07-24 18:22:25.531250,408.39
2019-07-24 18:22:25.546875,412.59
2019-07-24 18:22:25.562500,381.99
2019-07-24 18:22:25.578125,319.51
2019-07-24 18:22:25.593750,235.91
2019-07-24 18:22:25.609375,145.51
2019-07-24 18:22:25.625000,60.38
2019-07-24 18:22:25.640625,-12.92
2019-07-24 18:22:25.656250,-73.73
2019-07-24 18:22:25.671875,-124.75
2019-07-24 18:22:25.687500,-169.84
2019-07-24 18:22:25.703125,-211.01
2019-07-24 18:22:25.718750,-249.35
2019-07-24 18:22:25.734375,-285.04
2019-07-24 18:22:25.750000,-317.89
2019-07-24 18:22:25.765625,-348.17
2019-07-24 18:22:25.781250,-374.87
2019-07-24 18:22:25.796875,-394.73
2019-07-24 18:22:25.812500,-399.2
2019-07-24 18:22:25.828125,-382.98
2019-07-24 18:22:25.843750,-344.87
2019-07-24 18:22:25.859375,-288.88
2019-07-24 18:22:25.875000,-224.57
2019-07-24 18:22:25.890625,-158.3
2019-07-24 18:22:25.906250,-93.68
2019-07-24 18:22:25.921875,-31.07
2019-07-24 18:22:25.937500,31.01
2019-07-24 18:22:25.953125,93.77
2019-07-24 18:22:25.968750,153.09
2019-07-24 18:22:25.984375,203.02
2019-07-24 18:22:26.000000,237.21
2019-07-24 18:22:26.015625,252.78
2019-07-24 18:22:26.031250,252.58
2019-07-24 18:22:26.046875,243.3
2019-07-24 18:22:26.062500,232.37
2019-07-24 18:22:26.078125,224.3
2019-07-24 18:22:26.093750,218.6
2019-07-24 18:22:26.109375,209.88
2019-07-24 18:22:26.125000,192.48
2019-07-24 18:22:26.140625,163.28
2019-07-24 18:22:26.156250,123.96
2019-07-24 18:22:26.171875,80.45
2019-07-24 18:22:26.187500,39.0
2019-07-24 18:22:26.203125,3.44
2019-07-24 18:22:26.218750,-25.92
2019-07-24 18:22:26.234375,-51.1
2019-07-24 18:22:26.250000,-74.53
2019-07-24 18:22:26.265625,-96.56
2019-07-24 18:22:26.281250,-115.67
2019-07-24 18:22:26.296875,-129.67
2019-07-24 18:22:26.312500,-136.8
2019-07-24 18:22:26.328125,-137.48
2019-07-24 18:22:26.343750,-134.32
2019-07-24 18:22:26.359375,-130.78
2019-07-24 18:22:26.375000,-129.9
2019-07-24 18:22:26.390625,-133.47
2019-07-24 18:22:26.406250,-141.16
2019-07-24 18:22:26.421875,-151.35
2019-07-24 18:22:26.437500,-161.98
2019-07-24 18:22:26.453125,-171.42
2019-07-24 18:22:26.468750,-179.53
2019-07-24 18:22:26.484375,-187.51
2019-07-24 18:22:26.500000,-197.19
2019-07-24 18:22:26.515625,-210.2
2019-07-24 18:22:26.531250,-227.34
2019-07-24 18:22:26.546875,-248.24
2019-07-24 18:22:26.562500,-271.82
2019-07-24 18:22:26.578125,-296.66
2019-07-24 18:22:26.593750,-321.33
2019-07-24 18:22:26.609375,-345.12
2019-07-24 18:22:26.625000,-367.7
2019-07-24 18:22:26.640625,-388.64
2019-07-24 18:22:26.656250,-407.04
2019-07-24 18:22:26.671875,-421.35
2019-07-24 18:22:26.687500,-429.51
2019-07-24 18:22:26.703125,-429.27
2019-07-24 18:22:26.718750,-419.92
2019-07-24 18:22:26.734375,-400.34
2019-07-24 18:22:26.750000,-370.15
2019-07-24 18:22:26.765625,-329.79
2019-07-24 18:22:26.781250,-280.45
2019-07-24 18:22:26.796875,-224.05
2019-07-24 18:22:26.812500,-162.91
2019-07-24 18:22:26.828125,-99.59
2019-07-24 18:22:26.843750,-36.75
2019-07-24 18:22:26.859375,22.97
2019-07-24 18:22:26.875000,77.36
2019-07-24 18:22:26.890625,124.48
2019-07-24 18:22:26.906250,162.93
2019-07-24 18:22:26.921875,191.9
2019-07-24 18:22:26.937500,211.46
2019-07-24 18:22:26.953125,222.11
2019-07-24 18:22:26.968750,224.94
2019-07-24 18:22:26.984375,221.28
2019-07-24 18:22:27.000000,212.57
2019-07-24 18:22:27.015625,200.29
2019-07-24 18:22:27.031250,185.79
2019-07-24 18:22:27.046875,170.23
2019-07-24 18:22:27.062500,154.66
2019-07-24 18:22:27.078125,139.89
2019-07-24 18:22:27.093750,126.51
2019-07-24 18:22:27.109375,114.48
2019-07-24 18:22:27.125000,103.03
2019-07-24 18:22:27.140625,90.72
2019-07-24 18:22:27.156250,75.77
2019-07-24 18:22:27.171875,56.35
2019-07-24 18:22:27.187500,31.18
2019-07-24 18:22:27.203125,-0.02
2019-07-24 18:22:27.218750,-36.52
2019-07-24 18:22:27.234375,-76.71
2019-07-24 18:22:27.250000,-118.66
2019-07-24 18:22:27.265625,-160.75
2019-07-24 18:22:27.281250,-201.68
2019-07-24 18:22:27.296875,-240.76
2019-07-24 18:22:27.312500,-277.49
2019-07-24 18:22:27.328125,-311.12
2019-07-24 18:22:27.343750,-340.12
2019-07-24 18:22:27.359375,-362.36
2019-07-24 18:22:27.375000,-375.54
2019-07-24 18:22:27.390625,-378.11
2019-07-24 18:22:27.406250,-369.57
2019-07-24 18:22:27.421875,-350.97
2019-07-24 18:22:27.437500,-323.95
2019-07-24 18:22:27.453125,-290.34
2019-07-24 18:22:27.468750,-251.17
2019-07-24 18:22:27.484375,-205.99
2019-07-24 18:22:27.500000,-153.17
2019-07-24 18:22:27.515625,-90.29
2019-07-24 18:22:27.531250,-14.56
2019-07-24 18:22:27.546875,76.74
2019-07-24 18:22:27.562500,185.63
2019-07-24 18:22:27.578125,312.19
2019-07-24 18:22:27.593750,453.42
2019-07-24 18:22:27.609375,601.4
2019-07-24 18:22:27.625000,744.82
2019-07-24 18:22:27.640625,871.32
2019-07-24 18:22:27.656250,971.02
2019-07-24 18:22:27.671875,1039.21
2019-07-24 18:22:27.687500,1077.12
2019-07-24 18:22:27.703125,1090.11
2019-07-24 18:22:27.718750,1084.4
2019-07-24 18:22:27.734375,1064.03
2019-07-24 18:22:27.750000,1030.01
2019-07-24 18:22:27.765625,981.37
2019-07-24 18:22:27.781250,917.42
2019-07-24 18:22:27.796875,839.35
2019-07-24 18:22:27.812500,750.41
2019-07-24 18:22:27.828125,654.66
2019-07-24 18:22:27.843750,555.63
2019-07-24 18:22:27.859375,455.54
2019-07-24 18:22:27.875000,355.67
2019-07-24 18:22:27.890625,257.33
2019-07-24 18:22:27.906250,162.68
2019-07-24 18:22:27.921875,74.48
2019-07-24 18:22:27.937500,-4.24
2019-07-24 18:22:27.953125,-71.25
2019-07-24 18:22:27.968750,-125.85
2019-07-24 18:22:27.984375,-168.92
2019-07-24 18:22:28.000000,-202.51
2019-07-24 18:22:28.015625,-228.97
2019-07-24 18:22:28.031250,-250.18
2019-07-24 18:22:28.046875,-267.06
2019-07-24 18:22:28.062500,-279.54
2019-07-24 18:22:28.078125,-287.05
2019-07-24 18:22:28.093750,-289.16
2019-07-24 18:22:28.109375,-286.04
2019-07-24 18:22:28.125000,-278.61
2019-07-24 18:22:28.140625,-268.26
2019-07-24 18:22:28.156250,-256.4
2019-07-24 18:22:28.171875,-244.0
2019-07-24 18:22:28.187500,-231.48
2019-07-24 18:22:28.203125,-218.59
2019-07-24 18:22:28.218750,-205.02
2019-07-24 18:22:28.234375,-190.51
2019-07-24 18:22:28.250000,-175.37
2019-07-24 18:22:28.265625,-160.4
2019-07-24 18:22:28.281250,-146.86
2019-07-24 18:22:28.296875,-136.12
2019-07-24 18:22:28.312500,-128.77
2019-07-24 18:22:28.328125,-125.7
2019-07-24 18:22:28.343750,-127.38
2019-07-24 18:22:28.359375,-133.85
2019-07-24 18:22:28.375000,-144.66
2019-07-24 18:22:28.390625,-159.01
2019-07-24 18:22:28.406250,-175.74
2019-07-24 18:22:28.421875,-193.61
2019-07-24 18:22:28.437500,-211.23
2019-07-24 18:22:28.453125,-227.22
2019-07-24 18:22:28.468750,-240.43
2019-07-24 18:22:28.484375,-249.85
2019-07-24 18:22:28.500000,-254.78
2019-07-24 18:22:28.515625,-254.95
2019-07-24 18:22:28.531250,-250.26
2019-07-24 18:22:28.546875,-240.86
2019-07-24 18:22:28.562500,-226.91
2019-07-24 18:22:28.578125,-208.57
2019-07-24 18:22:28.593750,-185.91
2019-07-24 18:22:28.609375,-159.28
2019-07-24 18:22:28.625000,-128.88
2019-07-24 18:22:28.640625,-94.1
2019-07-24 18:22:28.656250,-55.73
2019-07-24 18:22:28.671875,-15.18
2019-07-24 18:22:28.687500,25.8
2019-07-24 18:22:28.703125,65.52
2019-07-24 18:22:28.718750,102.24
2019-07-24 18:22:28.734375,134.55
2019-07-24 18:22:28.750000,160.9
2019-07-24 18:22:28.765625,180.51
2019-07-24 18:22:28.781250,193.1
2019-07-24 18:22:28.796875,198.88
2019-07-24 18:22:28.812500,199.03
2019-07-24 18:22:28.828125,194.1
2019-07-24 18:22:28.843750,184.76
2019-07-24 18:22:28.859375,171.54
2019-07-24 18:22:28.875000,154.95
2019-07-24 18:22:28.890625,134.83
2019-07-24 18:22:28.906250,111.33
2019-07-24 18:22:28.921875,84.58
2019-07-24 18:22:28.937500,55.0
2019-07-24 18:22:28.953125,22.88
2019-07-24 18:22:28.968750,-11.59
2019-07-24 18:22:28.984375,-47.97
2019-07-24 18:22:29.000000,-85.67
2019-07-24 18:22:29.015625,-122.41
2019-07-24 18:22:29.031250,-157.09
2019-07-24 18:22:29.046875,-188.5
2019-07-24 18:22:29.062500,-217.64
2019-07-24 18:22:29.078125,-243.78
2019-07-24 18:22:29.093750,-266.06
2019-07-24 18:22:29.109375,-283.93
2019-07-24 18:22:29.125000,-297.05
2019-07-24 18:22:29.140625,-305.45
2019-07-24 18:22:29.156250,-309.45
2019-07-24 18:22:29.171875,-310.04
2019-07-24 18:22:29.187500,-307.58
2019-07-24 18:22:29.203125,-301.91
2019-07-24 18:22:29.218750,-292.23
2019-07-24 18:22:29.234375,-277.63
2019-07-24 18:22:29.250000,-257.42
2019-07-24 18:22:29.265625,-230.93
2019-07-24 18:22:29.281250,-197.79
2019-07-24 18:22:29.296875,-155.59
2019-07-24 18:22:29.312500,-105.72
2019-07-24 18:22:29.328125,-50.79
2019-07-24 18:22:29.343750,5.92
2019-07-24 18:22:29.359375,61.34
2019-07-24 18:22:29.375000,112.5
2019-07-24 18:22:29.390625,156.85
2019-07-24 18:22:29.406250,192.63
2019-07-24 18:22:29.421875,218.95
2019-07-24 18:22:29.437500,235.58
2019-07-24 18:22:29.453125,242.52
2019-07-24 18:22:29.468750,240.75
2019-07-24 18:22:29.484375,231.95
2019-07-24 18:22:29.500000,218.2
2019-07-24 18:22:29.515625,201.54
2019-07-24 18:22:29.531250,183.74
2019-07-24 18:22:29.546875,166.34
2019-07-24 18:22:29.562500,150.58
2019-07-24 18:22:29.578125,137.23
2019-07-24 18:22:29.593750,126.39
2019-07-24 18:22:29.609375,118.13
2019-07-24 18:22:29.625000,112.57
2019-07-24 18:22:29.640625,109.81
2019-07-24 18:22:29.656250,109.76
2019-07-24 18:22:29.671875,111.91
2019-07-24 18:22:29.687500,115.63
2019-07-24 18:22:29.703125,120.02
2019-07-24 18:22:29.718750,123.83
2019-07-24 18:22:29.734375,125.72
2019-07-24 18:22:29.750000,124.72
2019-07-24 18:22:29.765625,120.41
2019-07-24 18:22:29.781250,112.96
2019-07-24 18:22:29.796875,103.52
2019-07-24 18:22:29.812500,92.03
2019-07-24 18:22:29.828125,78.37
2019-07-24 18:22:29.843750,62.28
2019-07-24 18:22:29.859375,43.43
2019-07-24 18:22:29.875000,21.72
2019-07-24 18:22:29.890625,-2.43
2019-07-24 18:22:29.906250,-27.85
2019-07-24 18:22:29.921875,-52.66
2019-07-24 18:22:29.937500,-74.83
2019-07-24 18:22:29.953125,-92.91
2019-07-24 18:22:29.968750,-106.22
2019-07-24 18:22:29.984375,-115.12
2019-07-24 18:22:30.000000,-120.65
2019-07-24 18:22:30.015625,-123.89
2019-07-24 18:22:30.031250,-125.37
2019-07-24 18:22:30.046875,-124.4
2019-07-24 18:22:30.062500,-119.19
2019-07-24 18:22:30.078125,-107.87
2019-07-24 18:22:30.093750,-89.33
2019-07-24 18:22:30.109375,-63.77
2019-07-24 18:22:30.125000,-32.97
2019-07-24 18:22:30.140625,0.11
2019-07-24 18:22:30.156250,31.78
2019-07-24 18:22:30.171875,57.94
2019-07-24 18:22:30.187500,74.76
2019-07-24 18:22:30.203125,79.61
2019-07-24 18:22:30.218750,71.74
2019-07-24 18:22:30.234375,53.22
2019-07-24 18:22:30.250000,29.09
2019-07-24 18:22:30.265625,5.99
2019-07-24 18:22:30.281250,-9.98
2019-07-24 18:22:30.296875,-14.44
2019-07-24 18:22:30.312500,-8.48
2019-07-24 18:22:30.328125,2.37
2019-07-24 18:22:30.343750,11.36
2019-07-24 18:22:30.359375,14.03
2019-07-24 18:22:30.375000,10.1
2019-07-24 18:22:30.390625,2.81
2019-07-24 18:22:30.406250,-3.67
2019-07-24 18:22:30.421875,-6.7
2019-07-24 18:22:30.437500,-6.29
2019-07-24 18:22:30.453125,-4.64
2019-07-24 18:22:30.468750,-3.97
2019-07-24 18:22:30.484375,-5.12
2019-07-24 18:22:30.500000,-7.43
2019-07-24 18:22:30.515625,-9.69
2019-07-24 18:22:30.531250,-11.32
2019-07-24 18:22:30.546875,-12.85
2019-07-24 18:22:30.562500,-15.56
2019-07-24 18:22:30.578125,-20.73
2019-07-24 18:22:30.593750,-28.95
2019-07-24 18:22:30.609375,-39.49
2019-07-24 18:22:30.625000,-50.56
2019-07-24 18:22:30.640625,-60.04
2019-07-24 18:22:30.656250,-66.38
2019-07-24 18:22:30.671875,-69.28
2019-07-24 18:22:30.687500,-69.76
2019-07-24 18:22:30.703125,-69.63
2019-07-24 18:22:30.718750,-70.66
2019-07-24 18:22:30.734375,-74.03
2019-07-24 18:22:30.750000,-79.54
2019-07-24 18:22:30.765625,-85.95
2019-07-24 18:22:30.781250,-91.35
2019-07-24 18:22:30.796875,-93.99
2019-07-24 18:22:30.812500,-92.94
2019-07-24 18:22:30.828125,-88.45
2019-07-24 18:22:30.843750,-81.86
2019-07-24 18:22:30.859375,-74.85
2019-07-24 18:22:30.875000,-69.04
2019-07-24 18:22:30.890625,-65.11
2019-07-24 18:22:30.906250,-62.84
2019-07-24 18:22:30.921875,-61.27
2019-07-24 18:22:30.937500,-59.45
2019-07-24 18:22:30.953125,-57.02
2019-07-24 18:22:30.968750,-54.68
2019-07-24 18:22:30.984375,-54.2
2019-07-24 18:22:31.000000,-57.44
2019-07-24 18:22:31.015625,-65.76
2019-07-24 18:22:31.031250,-79.0
2019-07-24 18:22:31.046875,-95.37
2019-07-24 18:22:31.062500,-111.75
2019-07-24 18:22:31.078125,-124.81
2019-07-24 18:22:31.093750,-132.06
2019-07-24 18:22:31.109375,-132.7
2019-07-24 18:22:31.125000,-128.5
2019-07-24 18:22:31.140625,-121.1
2019-07-24 18:22:31.156250,-112.15
2019-07-24 18:22:31.171875,-101.88
2019-07-24 18:22:31.187500,-88.96
2019-07-24 18:22:31.203125,-70.83
2019-07-24 18:22:31.218750,-44.73
2019-07-24 18:22:31.234375,-8.67
2019-07-24 18:22:31.250000,37.87
2019-07-24 18:22:31.265625,93.16
2019-07-24 18:22:31.281250,153.29
2019-07-24 18:22:31.296875,210.68
2019-07-24 18:22:31.312500,255.89
2019-07-24 18:22:31.328125,279.33
2019-07-24 18:22:31.343750,274.68
2019-07-24 18:22:31.359375,242.12
2019-07-24 18:22:31.375000,189.76
2019-07-24 18:22:31.390625,132.91
2019-07-24 18:22:31.406250,85.97
2019-07-24 18:22:31.421875,58.89
2019-07-24 18:22:31.437500,53.16
2019-07-24 18:22:31.453125,61.9
2019-07-24 18:22:31.468750,73.54
2019-07-24 18:22:31.484375,77.46
2019-07-24 18:22:31.500000,68.59
2019-07-24 18:22:31.515625,48.62
2019-07-24 18:22:31.531250,24.14
2019-07-24 18:22:31.546875,2.48
2019-07-24 18:22:31.562500,-11.04
2019-07-24 18:22:31.578125,-14.97
2019-07-24 18:22:31.593750,-10.82
2019-07-24 18:22:31.609375,-1.05
2019-07-24 18:22:31.625000,12.52
2019-07-24 18:22:31.640625,29.75
2019-07-24 18:22:31.656250,51.07
2019-07-24 18:22:31.671875,76.34
2019-07-24 18:22:31.687500,103.79
2019-07-24 18:22:31.703125,130.63
2019-07-24 18:22:31.718750,153.63
2019-07-24 18:22:31.734375,169.72
2019-07-24 18:22:31.750000,176.3
2019-07-24 18:22:31.765625,171.18
2019-07-24 18:22:31.781250,153.14
2019-07-24 18:22:31.796875,122.78
2019-07-24 18:22:31.812500,83.78
2019-07-24 18:22:31.828125,43.11
2019-07-24 18:22:31.843750,9.9
2019-07-24 18:22:31.859375,-6.86
2019-07-24 18:22:31.875000,-2.16
2019-07-24 18:22:31.890625,22.5
2019-07-24 18:22:31.906250,58.84
2019-07-24 18:22:31.921875,94.43
2019-07-24 18:22:31.937500,116.63
2019-07-24 18:22:31.953125,117.08
2019-07-24 18:22:31.968750,94.51
2019-07-24 18:22:31.984375,55.22
2019-07-24 18:22:32.000000,11.23
2019-07-24 18:22:32.015625,-24.04
2019-07-24 18:22:32.031250,-40.08
2019-07-24 18:22:32.046875,-32.63
2019-07-24 18:22:32.062500,-4.47
2019-07-24 18:22:32.078125,35.61
2019-07-24 18:22:32.093750,76.22
2019-07-24 18:22:32.109375,107.46
2019-07-24 18:22:32.125000,121.84
2019-07-24 18:22:32.140625,117.77
2019-07-24 18:22:32.156250,98.09
2019-07-24 18:22:32.171875,67.38
2019-07-24 18:22:32.187500,29.7
2019-07-24 18:22:32.203125,-11.82
2019-07-24 18:22:32.218750,-54.76
2019-07-24 18:22:32.234375,-96.29
2019-07-24 18:22:32.250000,-132.5
2019-07-24 18:22:32.265625,-159.51
2019-07-24 18:22:32.281250,-174.44
2019-07-24 18:22:32.296875,-176.41
2019-07-24 18:22:32.312500,-166.23
2019-07-24 18:22:32.328125,-146.74
2019-07-24 18:22:32.343750,-120.36
2019-07-24 18:22:32.359375,-90.15
2019-07-24 18:22:32.375000,-60.88
2019-07-24 18:22:32.390625,-39.1
2019-07-24 18:22:32.406250,-31.4
2019-07-24 18:22:32.421875,-40.93
2019-07-24 18:22:32.437500,-65.2
2019-07-24 18:22:32.453125,-95.63
2019-07-24 18:22:32.468750,-120.28
2019-07-24 18:22:32.484375,-128.21
2019-07-24 18:22:32.500000,-114.0
2019-07-24 18:22:32.515625,-79.24
2019-07-24 18:22:32.531250,-31.16
2019-07-24 18:22:32.546875,20.54
2019-07-24 18:22:32.562500,66.89
2019-07-24 18:22:32.578125,100.6
2019-07-24 18:22:32.593750,116.41
2019-07-24 18:22:32.609375,110.99
2019-07-24 18:22:32.625000,83.73
2019-07-24 18:22:32.640625,37.75
2019-07-24 18:22:32.656250,-19.65
2019-07-24 18:22:32.671875,-78.1
2019-07-24 18:22:32.687500,-127.0
2019-07-24 18:22:32.703125,-157.59
2019-07-24 18:22:32.718750,-166.49
2019-07-24 18:22:32.734375,-156.02
2019-07-24 18:22:32.750000,-132.99
2019-07-24 18:22:32.765625,-106.44
2019-07-24 18:22:32.781250,-85.81
2019-07-24 18:22:32.796875,-78.68
2019-07-24 18:22:32.812500,-88.88
2019-07-24 18:22:32.828125,-115.08
2019-07-24 18:22:32.843750,-150.59
2019-07-24 18:22:32.859375,-185.7
2019-07-24 18:22:32.875000,-210.64
2019-07-24 18:22:32.890625,-219.22
2019-07-24 18:22:32.906250,-210.4
2019-07-24 18:22:32.921875,-187.51
2019-07-24 18:22:32.937500,-155.7
2019-07-24 18:22:32.953125,-119.51
2019-07-24 18:22:32.968750,-81.84
2019-07-24 18:22:32.984375,-44.6
2019-07-24 18:22:33.000000,-10.19
2019-07-24 18:22:33.015625,18.87
2019-07-24 18:22:33.031250,40.89
2019-07-24 18:22:33.046875,56.08
2019-07-24 18:22:33.062500,67.65
2019-07-24 18:22:33.078125,80.9
2019-07-24 18:22:33.093750,100.72
2019-07-24 18:22:33.109375,129.29
2019-07-24 18:22:33.125000,165.1
2019-07-24 18:22:33.140625,203.47
2019-07-24 18:22:33.156250,239.38
2019-07-24 18:22:33.171875,268.81
2019-07-24 18:22:33.187500,289.34
2019-07-24 18:22:33.203125,300.02
2019-07-24 18:22:33.218750,300.68
2019-07-24 18:22:33.234375,291.13
2019-07-24 18:22:33.250000,271.26
2019-07-24 18:22:33.265625,243.33
2019-07-24 18:22:33.281250,208.17
2019-07-24 18:22:33.296875,167.88
2019-07-24 18:22:33.312500,126.61
2019-07-24 18:22:33.328125,89.59
2019-07-24 18:22:33.343750,61.56
2019-07-24 18:22:33.359375,44.47
2019-07-24 18:22:33.375000,35.68
2019-07-24 18:22:33.390625,30.02
2019-07-24 18:22:33.406250,21.78
2019-07-24 18:22:33.421875,7.43
2019-07-24 18:22:33.437500,-12.08
2019-07-24 18:22:33.453125,-32.99
2019-07-24 18:22:33.468750,-52.22
2019-07-24 18:22:33.484375,-70.57
2019-07-24 18:22:33.500000,-93.43
2019-07-24 18:22:33.515625,-127.3
2019-07-24 18:22:33.531250,-174.41
2019-07-24 18:22:33.546875,-230.32
2019-07-24 18:22:33.562500,-285.01
2019-07-24 18:22:33.578125,-326.49
2019-07-24 18:22:33.593750,-345.92
2019-07-24 18:22:33.609375,-340.82
2019-07-24 18:22:33.625000,-314.92
2019-07-24 18:22:33.640625,-272.56
2019-07-24 18:22:33.656250,-220.4
2019-07-24 18:22:33.671875,-163.07
2019-07-24 18:22:33.687500,-102.71
2019-07-24 18:22:33.703125,-40.27
2019-07-24 18:22:33.718750,22.83
2019-07-24 18:22:33.734375,83.54
2019-07-24 18:22:33.750000,137.42
2019-07-24 18:22:33.765625,180.27
2019-07-24 18:22:33.781250,209.62
2019-07-24 18:22:33.796875,225.26
2019-07-24 18:22:33.812500,230.38
2019-07-24 18:22:33.828125,229.68
2019-07-24 18:22:33.843750,227.21
2019-07-24 18:22:33.859375,225.37
2019-07-24 18:22:33.875000,224.05
2019-07-24 18:22:33.890625,221.09
2019-07-24 18:22:33.906250,213.62
2019-07-24 18:22:33.921875,200.45
2019-07-24 18:22:33.937500,179.36
2019-07-24 18:22:33.953125,149.35
2019-07-24 18:22:33.968750,110.52
2019-07-24 18:22:33.984375,64.3
2019-07-24 18:22:34.000000,13.99
2019-07-24 18:22:34.015625,-35.17
2019-07-24 18:22:34.031250,-76.26
2019-07-24 18:22:34.046875,-102.96
2019-07-24 18:22:34.062500,-112.89
2019-07-24 18:22:34.078125,-109.16
2019-07-24 18:22:34.093750,-98.34
2019-07-24 18:22:34.109375,-88.04
2019-07-24 18:22:34.125000,-83.67
2019-07-24 18:22:34.140625,-86.65
2019-07-24 18:22:34.156250,-94.96
2019-07-24 18:22:34.171875,-105.12
2019-07-24 18:22:34.187500,-114.55
2019-07-24 18:22:34.203125,-122.67
2019-07-24 18:22:34.218750,-130.37
2019-07-24 18:22:34.234375,-138.2
2019-07-24 18:22:34.250000,-145.76
2019-07-24 18:22:34.265625,-151.59
2019-07-24 18:22:34.281250,-154.12
2019-07-24 18:22:34.296875,-152.57
2019-07-24 18:22:34.312500,-147.26
2019-07-24 18:22:34.328125,-139.07
2019-07-24 18:22:34.343750,-129.03
2019-07-24 18:22:34.359375,-118.11
2019-07-24 18:22:34.375000,-104.94
2019-07-24 18:22:34.390625,-87.4
2019-07-24 18:22:34.406250,-63.47
2019-07-24 18:22:34.421875,-32.2
2019-07-24 18:22:34.437500,5.84
2019-07-24 18:22:34.453125,48.45
2019-07-24 18:22:34.468750,92.45
2019-07-24 18:22:34.484375,134.31
2019-07-24 18:22:34.500000,171.08
2019-07-24 18:22:34.515625,200.87
2019-07-24 18:22:34.531250,222.46
2019-07-24 18:22:34.546875,235.35
2019-07-24 18:22:34.562500,239.29
2019-07-24 18:22:34.578125,234.11
2019-07-24 18:22:34.593750,219.7
2019-07-24 18:22:34.609375,196.26
2019-07-24 18:22:34.625000,163.44
2019-07-24 18:22:34.640625,122.84
2019-07-24 18:22:34.656250,77.05
2019-07-24 18:22:34.671875,28.84
2019-07-24 18:22:34.687500,-19.15
2019-07-24 18:22:34.703125,-64.81
2019-07-24 18:22:34.718750,-106.77
2019-07-24 18:22:34.734375,-144.31
2019-07-24 18:22:34.750000,-177.21
2019-07-24 18:22:34.765625,-205.71
2019-07-24 18:22:34.781250,-229.82
2019-07-24 18:22:34.796875,-249.55
2019-07-24 18:22:34.812500,-264.84
2019-07-24 18:22:34.828125,-275.53
2019-07-24 18:22:34.843750,-281.35
2019-07-24 18:22:34.859375,-281.99
2019-07-24 18:22:34.875000,-278.09
2019-07-24 18:22:34.890625,-269.36
2019-07-24 18:22:34.906250,-255.68
2019-07-24 18:22:34.921875,-237.05
2019-07-24 18:22:34.937500,-213.87
2019-07-24 18:22:34.953125,-186.97
2019-07-24 18:22:34.968750,-157.49
2019-07-24 18:22:34.984375,-126.63
2019-07-24 18:22:35.000000,-95.62
2019-07-24 18:22:35.015625,-65.52
2019-07-24 18:22:35.031250,-37.13
2019-07-24 18:22:35.046875,-11.19
2019-07-24 18:22:35.062500,11.79
2019-07-24 18:22:35.078125,31.33
2019-07-24 18:22:35.093750,47.03
2019-07-24 18:22:35.109375,58.56
2019-07-24 18:22:35.125000,65.78
2019-07-24 18:22:35.140625,68.74
2019-07-24 18:22:35.156250,67.7
2019-07-24 18:22:35.171875,63.28
2019-07-24 18:22:35.187500,56.09
2019-07-24 18:22:35.203125,47.0
2019-07-24 18:22:35.218750,36.75
2019-07-24 18:22:35.234375,26.0
2019-07-24 18:22:35.250000,15.25
2019-07-24 18:22:35.265625,4.74
2019-07-24 18:22:35.281250,-5.43
2019-07-24 18:22:35.296875,-15.23
2019-07-24 18:22:35.312500,-24.54
2019-07-24 18:22:35.328125,-33.36
2019-07-24 18:22:35.343750,-41.51
2019-07-24 18:22:35.359375,-48.97
2019-07-24 18:22:35.375000,-55.81
2019-07-24 18:22:35.390625,-62.08
2019-07-24 18:22:35.406250,-67.71
2019-07-24 18:22:35.421875,-72.32
2019-07-24 18:22:35.437500,-75.29
2019-07-24 18:22:35.453125,-75.65
2019-07-24 18:22:35.468750,-73.45
2019-07-24 18:22:35.484375,-68.61
2019-07-24 18:22:35.500000,-61.5
2019-07-24 18:22:35.515625,-52.76
2019-07-24 18:22:35.531250,-43.33
2019-07-24 18:22:35.546875,-33.97
2019-07-24 18:22:35.562500,-25.03
2019-07-24 18:22:35.578125,-16.31
2019-07-24 18:22:35.593750,-7.13
2019-07-24 18:22:35.609375,3.2
2019-07-24 18:22:35.625000,15.33
2019-07-24 18:22:35.640625,29.19
2019-07-24 18:22:35.656250,44.18
2019-07-24 18:22:35.671875,59.45
2019-07-24 18:22:35.687500,74.33
2019-07-24 18:22:35.703125,88.67
2019-07-24 18:22:35.718750,102.88
2019-07-24 18:22:35.734375,117.66
2019-07-24 18:22:35.750000,133.61
2019-07-24 18:22:35.765625,151.31
2019-07-24 18:22:35.781250,171.21
2019-07-24 18:22:35.796875,193.96
2019-07-24 18:22:35.812500,220.05
2019-07-24 18:22:35.828125,249.16
2019-07-24 18:22:35.843750,279.31
2019-07-24 18:22:35.859375,306.66
2019-07-24 18:22:35.875000,326.4
2019-07-24 18:22:35.890625,334.54
2019-07-24 18:22:35.906250,329.75
2019-07-24 18:22:35.921875,313.93
2019-07-24 18:22:35.937500,291.28
2019-07-24 18:22:35.953125,266.23
2019-07-24 18:22:35.968750,241.64
2019-07-24 18:22:35.984375,218.14
2019-07-24 18:22:36.000000,195.04
2019-07-24 18:22:36.015625,172.0
2019-07-24 18:22:36.031250,150.0
2019-07-24 18:22:36.046875,131.3
2019-07-24 18:22:36.062500,117.74
2019-07-24 18:22:36.078125,109.37
2019-07-24 18:22:36.093750,103.75
2019-07-24 18:22:36.109375,96.89
2019-07-24 18:22:36.125000,85.21
2019-07-24 18:22:36.140625,67.26
2019-07-24 18:22:36.156250,44.46
2019-07-24 18:22:36.171875,20.34
2019-07-24 18:22:36.187500,-1.07
2019-07-24 18:22:36.203125,-17.08
2019-07-24 18:22:36.218750,-27.09
2019-07-24 18:22:36.234375,-32.47
2019-07-24 18:22:36.250000,-35.23
2019-07-24 18:22:36.265625,-36.84
2019-07-24 18:22:36.281250,-37.6
2019-07-24 18:22:36.296875,-36.89
2019-07-24 18:22:36.312500,-34.43
2019-07-24 18:22:36.328125,-31.14
2019-07-24 18:22:36.343750,-29.55
2019-07-24 18:22:36.359375,-32.65
2019-07-24 18:22:36.375000,-42.21
2019-07-24 18:22:36.390625,-57.32
2019-07-24 18:22:36.406250,-74.17
2019-07-24 18:22:36.421875,-87.5
2019-07-24 18:22:36.437500,-92.97
2019-07-24 18:22:36.453125,-89.31
2019-07-24 18:22:36.468750,-78.78
2019-07-24 18:22:36.484375,-66.07
2019-07-24 18:22:36.500000,-55.74
2019-07-24 18:22:36.515625,-50.23
2019-07-24 18:22:36.531250,-49.27
2019-07-24 18:22:36.546875,-50.7
2019-07-24 18:22:36.562500,-52.33
2019-07-24 18:22:36.578125,-53.02
2019-07-24 18:22:36.593750,-52.89
2019-07-24 18:22:36.609375,-52.38
2019-07-24 18:22:36.625000,-51.25
2019-07-24 18:22:36.640625,-48.24
2019-07-24 18:22:36.656250,-41.71
2019-07-24 18:22:36.671875,-30.88
2019-07-24 18:22:36.687500,-16.66
2019-07-24 18:22:36.703125,-1.66
2019-07-24 18:22:36.718750,10.83
2019-07-24 18:22:36.734375,18.18
2019-07-24 18:22:36.750000,19.58
2019-07-24 18:22:36.765625,16.23
2019-07-24 18:22:36.781250,10.67
2019-07-24 18:22:36.796875,5.62
2019-07-24 18:22:36.812500,2.81
2019-07-24 18:22:36.828125,2.5
2019-07-24 18:22:36.843750,3.63
2019-07-24 18:22:36.859375,4.63
2019-07-24 18:22:36.875000,4.37
2019-07-24 18:22:36.890625,2.81
2019-07-24 18:22:36.906250,0.95
2019-07-24 18:22:36.921875,0.21
2019-07-24 18:22:36.937500,1.57
2019-07-24 18:22:36.953125,4.98
2019-07-24 18:22:36.968750,9.36
2019-07-24 18:22:36.984375,13.08
2019-07-24 18:22:37.000000,14.78
2019-07-24 18:22:37.015625,13.99
2019-07-24 18:22:37.031250,11.34
2019-07-24 18:22:37.046875,7.99
2019-07-24 18:22:37.062500,4.95
2019-07-24 18:22:37.078125,2.42
2019-07-24 18:22:37.093750,-0.27
2019-07-24 18:22:37.109375,-4.07
2019-07-24 18:22:37.125000,-9.39
2019-07-24 18:22:37.140625,-15.44
2019-07-24 18:22:37.156250,-20.4
2019-07-24 18:22:37.171875,-22.21
2019-07-24 18:22:37.187500,-19.79
2019-07-24 18:22:37.203125,-13.79
2019-07-24 18:22:37.218750,-6.49
2019-07-24 18:22:37.234375,-0.86
2019-07-24 18:22:37.250000,0.92
2019-07-24 18:22:37.265625,-1.52
2019-07-24 18:22:37.281250,-6.54
2019-07-24 18:22:37.296875,-11.47
2019-07-24 18:22:37.312500,-14.02
2019-07-24 18:22:37.328125,-13.49
2019-07-24 18:22:37.343750,-10.87
2019-07-24 18:22:37.359375,-8.04
2019-07-24 18:22:37.375000,-6.42
2019-07-24 18:22:37.390625,-5.99
2019-07-24 18:22:37.406250,-5.27
2019-07-24 18:22:37.421875,-2.31
2019-07-24 18:22:37.437500,3.78
2019-07-24 18:22:37.453125,12.03
2019-07-24 18:22:37.468750,19.88
2019-07-24 18:22:37.484375,24.48
2019-07-24 18:22:37.500000,24.34
2019-07-24 18:22:37.515625,20.15
2019-07-24 18:22:37.531250,14.35
2019-07-24 18:22:37.546875,9.77
2019-07-24 18:22:37.562500,8.02
2019-07-24 18:22:37.578125,8.77
2019-07-24 18:22:37.593750,10.28
2019-07-24 18:22:37.609375,10.58
2019-07-24 18:22:37.625000,8.9
2019-07-24 18:22:37.640625,6.15
2019-07-24 18:22:37.656250,4.32
2019-07-24 18:22:37.671875,5.29
2019-07-24 18:22:37.687500,9.73
2019-07-24 18:22:37.703125,16.78
2019-07-24 18:22:37.718750,24.72
2019-07-24 18:22:37.734375,31.96
2019-07-24 18:22:37.750000,37.85
2019-07-24 18:22:37.765625,42.72
2019-07-24 18:22:37.781250,47.33
2019-07-24 18:22:37.796875,51.81
2019-07-24 18:22:37.812500,55.17
2019-07-24 18:22:37.828125,55.56
2019-07-24 18:22:37.843750,51.35
2019-07-24 18:22:37.859375,42.35
2019-07-24 18:22:37.875000,30.5
2019-07-24 18:22:37.890625,19.54
2019-07-24 18:22:37.906250,13.62
2019-07-24 18:22:37.921875,15.68
2019-07-24 18:22:37.937500,25.9
2019-07-24 18:22:37.953125,41.41
2019-07-24 18:22:37.968750,57.58
2019-07-24 18:22:37.984375,69.82
2019-07-24 18:22:38.000000,75.33
2019-07-24 18:22:38.015625,73.96
2019-07-24 18:22:38.031250,67.69
2019-07-24 18:22:38.046875,58.36
2019-07-24 18:22:38.062500,47.98
2019-07-24 18:22:38.078125,37.9
2019-07-24 18:22:38.093750,28.82
2019-07-24 18:22:38.109375,21.04
2019-07-24 18:22:38.125000,14.91
2019-07-24 18:22:38.140625,10.67
2019-07-24 18:22:38.156250,8.36
2019-07-24 18:22:38.171875,7.46
2019-07-24 18:22:38.187500,6.95
2019-07-24 18:22:38.203125,5.75
2019-07-24 18:22:38.218750,2.98
2019-07-24 18:22:38.234375,-1.72
2019-07-24 18:22:38.250000,-7.98
2019-07-24 18:22:38.265625,-14.88
2019-07-24 18:22:38.281250,-21.3
2019-07-24 18:22:38.296875,-26.21
2019-07-24 18:22:38.312500,-29.06
2019-07-24 18:22:38.328125,-29.97
2019-07-24 18:22:38.343750,-29.29
2019-07-24 18:22:38.359375,-27.7
2019-07-24 18:22:38.375000,-25.73
2019-07-24 18:22:38.390625,-23.59
2019-07-24 18:22:38.406250,-21.09
2019-07-24 18:22:38.421875,-17.77
2019-07-24 18:22:38.437500,-13.08
2019-07-24 18:22:38.453125,-6.62
2019-07-24 18:22:38.468750,1.56
2019-07-24 18:22:38.484375,11.17
2019-07-24 18:22:38.500000,21.49
2019-07-24 18:22:38.515625,31.53
2019-07-24 18:22:38.531250,40.18
2019-07-24 18:22:38.546875,46.81
2019-07-24 18:22:38.562500,50.49
2019-07-24 18:22:38.578125,50.39
2019-07-24 18:22:38.593750,46.02
2019-07-24 18:22:38.609375,37.19
2019-07-24 18:22:38.625000,24.3
2019-07-24 18:22:38.640625,7.96
2019-07-24 18:22:38.656250,-10.77
2019-07-24 18:22:38.671875,-30.56
2019-07-24 18:22:38.687500,-49.79
2019-07-24 18:22:38.703125,-66.87
2019-07-24 18:22:38.718750,-80.31
2019-07-24 18:22:38.734375,-88.97
2019-07-24 18:22:38.750000,-92.33
2019-07-24 18:22:38.765625,-90.46
2019-07-24 18:22:38.781250,-84.42
2019-07-24 18:22:38.796875,-75.56
2019-07-24 18:22:38.812500,-65.26
2019-07-24 18:22:38.828125,-54.48
2019-07-24 18:22:38.843750,-43.51
2019-07-24 18:22:38.859375,-31.9
2019-07-24 18:22:38.875000,-18.7
2019-07-24 18:22:38.890625,-2.98
2019-07-24 18:22:38.906250,15.72
2019-07-24 18:22:38.921875,36.5
2019-07-24 18:22:38.937500,57.69
2019-07-24 18:22:38.953125,77.39
2019-07-24 18:22:38.968750,93.84
2019-07-24 18:22:38.984375,106.05
2019-07-24 18:22:39.000000,113.95
2019-07-24 18:22:39.015625,118.13
2019-07-24 18:22:39.031250,119.21
2019-07-24 18:22:39.046875,118.05
2019-07-24 18:22:39.062500,113.61
2019-07-24 18:22:39.078125,103.96
2019-07-24 18:22:39.093750,86.88
2019-07-24 18:22:39.109375,60.66
2019-07-24 18:22:39.125000,24.75
2019-07-24 18:22:39.140625,-20.11
2019-07-24 18:22:39.156250,-72.46
2019-07-24 18:22:39.171875,-130.77
2019-07-24 18:22:39.187500,-190.28
2019-07-24 18:22:39.203125,-247.05
2019-07-24 18:22:39.218750,-297.53
2019-07-24 18:22:39.234375,-339.14
2019-07-24 18:22:39.250000,-370.85
2019-07-24 18:22:39.265625,-393.49
2019-07-24 18:22:39.281250,-409.07
2019-07-24 18:22:39.296875,-419.33
2019-07-24 18:22:39.312500,-423.93
2019-07-24 18:22:39.328125,-419.45
2019-07-24 18:22:39.343750,-400.85
2019-07-24 18:22:39.359375,-363.61
2019-07-24 18:22:39.375000,-306.77
2019-07-24 18:22:39.390625,-234.93
2019-07-24 18:22:39.406250,-157.51
2019-07-24 18:22:39.421875,-85.59
2019-07-24 18:22:39.437500,-28.19
2019-07-24 18:22:39.453125,10.65
2019-07-24 18:22:39.468750,32.29
2019-07-24 18:22:39.484375,41.1
2019-07-24 18:22:39.500000,42.16
2019-07-24 18:22:39.515625,39.04
2019-07-24 18:22:39.531250,33.32
2019-07-24 18:22:39.546875,25.21
2019-07-24 18:22:39.562500,14.88
2019-07-24 18:22:39.578125,2.74
2019-07-24 18:22:39.593750,-10.54
2019-07-24 18:22:39.609375,-24.27
2019-07-24 18:22:39.625000,-38.24
2019-07-24 18:22:39.640625,-52.35
2019-07-24 18:22:39.656250,-66.17
2019-07-24 18:22:39.671875,-78.12
2019-07-24 18:22:39.687500,-86.27
2019-07-24 18:22:39.703125,-86.64
2019-07-24 18:22:39.718750,-75.63
2019-07-24 18:22:39.734375,-52.22
2019-07-24 18:22:39.750000,-19.23
2019-07-24 18:22:39.765625,16.88
2019-07-24 18:22:39.781250,48.43
2019-07-24 18:22:39.796875,69.89
2019-07-24 18:22:39.812500,80.57
2019-07-24 18:22:39.828125,84.43
2019-07-24 18:22:39.843750,88.56
2019-07-24 18:22:39.859375,99.14
2019-07-24 18:22:39.875000,118.45
2019-07-24 18:22:39.890625,144.16
2019-07-24 18:22:39.906250,171.02
2019-07-24 18:22:39.921875,193.79
2019-07-24 18:22:39.937500,209.5
2019-07-24 18:22:39.953125,217.93
2019-07-24 18:22:39.968750,220.5
2019-07-24 18:22:39.984375,218.91
2019-07-24 18:22:40.000000,213.94
2019-07-24 18:22:40.015625,205.63
2019-07-24 18:22:40.031250,194.21
2019-07-24 18:22:40.046875,180.61
2019-07-24 18:22:40.062500,166.44
2019-07-24 18:22:40.078125,153.69
2019-07-24 18:22:40.093750,143.68
2019-07-24 18:22:40.109375,136.63
2019-07-24 18:22:40.125000,131.82
2019-07-24 18:22:40.140625,127.79
2019-07-24 18:22:40.156250,123.12
2019-07-24 18:22:40.171875,117.1
2019-07-24 18:22:40.187500,110.06
2019-07-24 18:22:40.203125,103.08
2019-07-24 18:22:40.218750,97.63
2019-07-24 18:22:40.234375,94.79
2019-07-24 18:22:40.250000,94.69
2019-07-24 18:22:40.265625,96.61
2019-07-24 18:22:40.281250,99.15
2019-07-24 18:22:40.296875,100.7
2019-07-24 18:22:40.312500,99.85
2019-07-24 18:22:40.328125,96.23
2019-07-24 18:22:40.343750,89.14
2019-07-24 18:22:40.359375,78.32
2019-07-24 18:22:40.375000,63.62
2019-07-24 18:22:40.390625,45.03
2019-07-24 18:22:40.406250,22.67
2019-07-24 18:22:40.421875,-2.98
2019-07-24 18:22:40.437500,-30.92
2019-07-24 18:22:40.453125,-59.58
2019-07-24 18:22:40.468750,-86.94
2019-07-24 18:22:40.484375,-110.95
2019-07-24 18:22:40.500000,-129.71
2019-07-24 18:22:40.515625,-141.92
2019-07-24 18:22:40.531250,-147.13
2019-07-24 18:22:40.546875,-145.72
2019-07-24 18:22:40.562500,-138.69
2019-07-24 18:22:40.578125,-127.46
2019-07-24 18:22:40.593750,-113.51
2019-07-24 18:22:40.609375,-98.26
2019-07-24 18:22:40.625000,-82.93
2019-07-24 18:22:40.640625,-68.31
2019-07-24 18:22:40.656250,-54.88
2019-07-24 18:22:40.671875,-42.88
2019-07-24 18:22:40.687500,-32.32
2019-07-24 18:22:40.703125,-23.1
2019-07-24 18:22:40.718750,-15.04
2019-07-24 18:22:40.734375,-7.82
2019-07-24 18:22:40.750000,-1.25
2019-07-24 18:22:40.765625,4.83
2019-07-24 18:22:40.781250,10.5
2019-07-24 18:22:40.796875,15.92
2019-07-24 18:22:40.812500,21.07
2019-07-24 18:22:40.828125,26.05
2019-07-24 18:22:40.843750,30.98
2019-07-24 18:22:40.859375,36.05
2019-07-24 18:22:40.875000,41.54
2019-07-24 18:22:40.890625,47.76
2019-07-24 18:22:40.906250,54.99
2019-07-24 18:22:40.921875,63.47
2019-07-24 18:22:40.937500,73.35
2019-07-24 18:22:40.953125,84.36
2019-07-24 18:22:40.968750,96.16
2019-07-24 18:22:40.984375,108.27
2019-07-24 18:22:41.000000,120.17
2019-07-24 18:22:41.015625,131.34
2019-07-24 18:22:41.031250,141.3
2019-07-24 18:22:41.046875,149.71
2019-07-24 18:22:41.062500,156.4
2019-07-24 18:22:41.078125,161.37
2019-07-24 18:22:41.093750,164.47
2019-07-24 18:22:41.109375,165.73
2019-07-24 18:22:41.125000,165.28
2019-07-24 18:22:41.140625,163.36
2019-07-24 18:22:41.156250,160.17
2019-07-24 18:22:41.171875,155.79
2019-07-24 18:22:41.187500,150.11
2019-07-24 18:22:41.203125,142.69
2019-07-24 18:22:41.218750,134.65
2019-07-24 18:22:41.234375,126.36
2019-07-24 18:22:41.250000,117.91
2019-07-24 18:22:41.265625,109.37
2019-07-24 18:22:41.281250,100.75
2019-07-24 18:22:41.296875,92.18
2019-07-24 18:22:41.312500,83.76
2019-07-24 18:22:41.328125,75.62
2019-07-24 18:22:41.343750,67.93
2019-07-24 18:22:41.359375,60.73
2019-07-24 18:22:41.375000,53.77
2019-07-24 18:22:41.390625,46.76
2019-07-24 18:22:41.406250,39.55
2019-07-24 18:22:41.421875,32.12
2019-07-24 18:22:41.437500,24.6
2019-07-24 18:22:41.453125,17.28
2019-07-24 18:22:41.468750,10.44
2019-07-24 18:22:41.484375,4.25
2019-07-24 18:22:41.500000,-1.34
2019-07-24 18:22:41.515625,-6.75
2019-07-24 18:22:41.531250,-12.49
2019-07-24 18:22:41.546875,-18.85
2019-07-24 18:22:41.562500,-25.92
2019-07-24 18:22:41.578125,-33.39
2019-07-24 18:22:41.593750,-40.72
2019-07-24 18:22:41.609375,-47.42
2019-07-24 18:22:41.625000,-53.34
2019-07-24 18:22:41.640625,-58.82
2019-07-24 18:22:41.656250,-64.74
2019-07-24 18:22:41.671875,-72.14
2019-07-24 18:22:41.687500,-81.76
2019-07-24 18:22:41.703125,-93.72
2019-07-24 18:22:41.718750,-107.42
2019-07-24 18:22:41.734375,-121.8
2019-07-24 18:22:41.750000,-135.74
2019-07-24 18:22:41.765625,-148.67
2019-07-24 18:22:41.781250,-160.9
2019-07-24 18:22:41.796875,-173.62
2019-07-24 18:22:41.812500,-188.3
2019-07-24 18:22:41.828125,-206.09
2019-07-24 18:22:41.843750,-227.23
2019-07-24 18:22:41.859375,-250.95
2019-07-24 18:22:41.875000,-275.87
2019-07-24 18:22:41.890625,-300.53
2019-07-24 18:22:41.906250,-324.07
2019-07-24 18:22:41.921875,-346.53
2019-07-24 18:22:41.937500,-368.78
2019-07-24 18:22:41.953125,-392.27
2019-07-24 18:22:41.968750,-418.8
2019-07-24 18:22:41.984375,-450.28
2019-07-24 18:22:42.000000,-488.13
2019-07-24 18:22:42.015625,-532.11
2019-07-24 18:22:42.031250,-579.2
2019-07-24 18:22:42.046875,-623.09
2019-07-24 18:22:42.062500,-655.26
2019-07-24 18:22:42.078125,-667.57
2019-07-24 18:22:42.093750,-655.26
2019-07-24 18:22:42.109375,-619.04
2019-07-24 18:22:42.125000,-564.82
2019-07-24 18:22:42.140625,-501.51
2019-07-24 18:22:42.156250,-437.48
2019-07-24 18:22:42.171875,-378.18
2019-07-24 18:22:42.187500,-325.28
2019-07-24 18:22:42.203125,-277.91
2019-07-24 18:22:42.218750,-234.5
2019-07-24 18:22:42.234375,-194.33
2019-07-24 18:22:42.250000,-157.57
2019-07-24 18:22:42.265625,-124.68
2019-07-24 18:22:42.281250,-95.36
2019-07-24 18:22:42.296875,-68.31
2019-07-24 18:22:42.312500,-41.8
2019-07-24 18:22:42.328125,-14.39
2019-07-24 18:22:42.343750,14.3
2019-07-24 18:22:42.359375,43.66
2019-07-24 18:22:42.375000,72.23
2019-07-24 18:22:42.390625,98.72
2019-07-24 18:22:42.406250,122.4
2019-07-24 18:22:42.421875,143.62
2019-07-24 18:22:42.437500,163.44
2019-07-24 18:22:42.453125,183.2
2019-07-24 18:22:42.468750,203.86
2019-07-24 18:22:42.484375,225.59
2019-07-24 18:22:42.500000,247.88
2019-07-24 18:22:42.515625,270.13
2019-07-24 18:22:42.531250,292.33
2019-07-24 18:22:42.546875,315.2
2019-07-24 18:22:42.562500,339.59
2019-07-24 18:22:42.578125,365.37
2019-07-24 18:22:42.593750,390.52
2019-07-24 18:22:42.609375,411.19
2019-07-24 18:22:42.625000,423.1
2019-07-24 18:22:42.640625,423.23
2019-07-24 18:22:42.656250,411.27
2019-07-24 18:22:42.671875,389.67
2019-07-24 18:22:42.687500,362.45
2019-07-24 18:22:42.703125,333.36
2019-07-24 18:22:42.718750,304.76
2019-07-24 18:22:42.734375,277.31
2019-07-24 18:22:42.750000,251.09
2019-07-24 18:22:42.765625,226.44
2019-07-24 18:22:42.781250,204.34
2019-07-24 18:22:42.796875,185.79
2019-07-24 18:22:42.812500,170.87
2019-07-24 18:22:42.828125,158.3
2019-07-24 18:22:42.843750,145.95
2019-07-24 18:22:42.859375,132.16
2019-07-24 18:22:42.875000,116.69
2019-07-24 18:22:42.890625,101.02
2019-07-24 18:22:42.906250,87.36
2019-07-24 18:22:42.921875,77.35
2019-07-24 18:22:42.937500,70.95
2019-07-24 18:22:42.953125,66.48
2019-07-24 18:22:42.968750,61.53
2019-07-24 18:22:42.984375,54.38
2019-07-24 18:22:43.000000,44.86
2019-07-24 18:22:43.015625,34.43
2019-07-24 18:22:43.031250,25.23
2019-07-24 18:22:43.046875,18.92
2019-07-24 18:22:43.062500,15.79
2019-07-24 18:22:43.078125,14.98
2019-07-24 18:22:43.093750,15.07
2019-07-24 18:22:43.109375,15.02
2019-07-24 18:22:43.125000,14.69
2019-07-24 18:22:43.140625,14.81
2019-07-24 18:22:43.156250,16.14
2019-07-24 18:22:43.171875,18.85
2019-07-24 18:22:43.187500,22.07
2019-07-24 18:22:43.203125,24.18
2019-07-24 18:22:43.218750,23.8
2019-07-24 18:22:43.234375,20.51
2019-07-24 18:22:43.250000,15.38
2019-07-24 18:22:43.265625,10.35
2019-07-24 18:22:43.281250,7.36
2019-07-24 18:22:43.296875,7.17
2019-07-24 18:22:43.312500,8.99
2019-07-24 18:22:43.328125,10.92
2019-07-24 18:22:43.343750,11.01
2019-07-24 18:22:43.359375,8.49
2019-07-24 18:22:43.375000,4.09
2019-07-24 18:22:43.390625,-0.28
2019-07-24 18:22:43.406250,-2.72
2019-07-24 18:22:43.421875,-2.31
2019-07-24 18:22:43.437500,0.3
2019-07-24 18:22:43.453125,3.37
2019-07-24 18:22:43.468750,4.93
2019-07-24 18:22:43.484375,3.98
2019-07-24 18:22:43.500000,0.9
2019-07-24 18:22:43.515625,-2.75
2019-07-24 18:22:43.531250,-5.21
2019-07-24 18:22:43.546875,-5.57
2019-07-24 18:22:43.562500,-4.26
2019-07-24 18:22:43.578125,-2.85
2019-07-24 18:22:43.593750,-3.05
2019-07-24 18:22:43.609375,-5.61
2019-07-24 18:22:43.625000,-9.75
2019-07-24 18:22:43.640625,-13.52
2019-07-24 18:22:43.656250,-14.89
2019-07-24 18:22:43.671875,-12.98
2019-07-24 18:22:43.687500,-8.62
2019-07-24 18:22:43.703125,-3.9
2019-07-24 18:22:43.718750,-1.05
2019-07-24 18:22:43.734375,-1.17
2019-07-24 18:22:43.750000,-3.65
2019-07-24 18:22:43.765625,-6.62
2019-07-24 18:22:43.781250,-8.05
2019-07-24 18:22:43.796875,-6.98
2019-07-24 18:22:43.812500,-3.99
2019-07-24 18:22:43.828125,-0.91
2019-07-24 18:22:43.843750,0.42
2019-07-24 18:22:43.859375,-0.91
2019-07-24 18:22:43.875000,-4.12
2019-07-24 18:22:43.890625,-7.28
2019-07-24 18:22:43.906250,-8.26
2019-07-24 18:22:43.921875,-5.89
2019-07-24 18:22:43.937500,-0.63
2019-07-24 18:22:43.953125,5.74
2019-07-24 18:22:43.968750,11.06
2019-07-24 18:22:43.984375,14.09
2019-07-24 18:22:44.000000,14.99
2019-07-24 18:22:44.015625,15.28
2019-07-24 18:22:44.031250,16.59
2019-07-24 18:22:44.046875,19.56
2019-07-24 18:22:44.062500,23.24
2019-07-24 18:22:44.078125,25.48
2019-07-24 18:22:44.093750,24.18
2019-07-24 18:22:44.109375,18.57
2019-07-24 18:22:44.125000,9.93
2019-07-24 18:22:44.140625,1.02
2019-07-24 18:22:44.156250,-5.31
2019-07-24 18:22:44.171875,-7.54
2019-07-24 18:22:44.187500,-6.39
2019-07-24 18:22:44.203125,-4.24
2019-07-24 18:22:44.218750,-3.76
2019-07-24 18:22:44.234375,-6.33
2019-07-24 18:22:44.250000,-11.3
2019-07-24 18:22:44.265625,-16.34
2019-07-24 18:22:44.281250,-18.93
2019-07-24 18:22:44.296875,-17.93
2019-07-24 18:22:44.312500,-14.09
2019-07-24 18:22:44.328125,-9.73
2019-07-24 18:22:44.343750,-7.0
2019-07-24 18:22:44.359375,-6.77
2019-07-24 18:22:44.375000,-8.03
2019-07-24 18:22:44.390625,-8.74
2019-07-24 18:22:44.406250,-7.26
2019-07-24 18:22:44.421875,-3.53
2019-07-24 18:22:44.437500,0.76
2019-07-24 18:22:44.453125,3.22
2019-07-24 18:22:44.468750,2.11
2019-07-24 18:22:44.484375,-2.42
2019-07-24 18:22:44.500000,-8.44
2019-07-24 18:22:44.515625,-13.18
2019-07-24 18:22:44.531250,-14.54
2019-07-24 18:22:44.546875,-12.1
2019-07-24 18:22:44.562500,-7.3
2019-07-24 18:22:44.578125,-2.53
2019-07-24 18:22:44.593750,0.12
2019-07-24 18:22:44.609375,-0.07
2019-07-24 18:22:44.625000,-2.16
2019-07-24 18:22:44.640625,-4.26
2019-07-24 18:22:44.656250,-4.62
2019-07-24 18:22:44.671875,-2.71
2019-07-24 18:22:44.687500,0.48
2019-07-24 18:22:44.703125,2.99
2019-07-24 18:22:44.718750,3.16
2019-07-24 18:22:44.734375,0.61
2019-07-24 18:22:44.750000,-3.42
2019-07-24 18:22:44.765625,-6.81
2019-07-24 18:22:44.781250,-7.75
2019-07-24 18:22:44.796875,-5.81
2019-07-24 18:22:44.812500,-2.22
2019-07-24 18:22:44.828125,0.93
2019-07-24 18:22:44.843750,1.84
2019-07-24 18:22:44.859375,0.17
2019-07-24 18:22:44.875000,-2.84
2019-07-24 18:22:44.890625,-5.05
2019-07-24 18:22:44.906250,-4.83
2019-07-24 18:22:44.921875,-2.01
2019-07-24 18:22:44.937500,1.92
2019-07-24 18:22:44.953125,4.68
2019-07-24 18:22:44.968750,4.49
2019-07-24 18:22:44.984375,1.23
2019-07-24 18:22:45.000000,-3.53
2019-07-24 18:22:45.015625,-7.31
2019-07-24 18:22:45.031250,-8.08
2019-07-24 18:22:45.046875,-5.45
2019-07-24 18:22:45.062500,-0.79
2019-07-24 18:22:45.078125,3.34
2019-07-24 18:22:45.093750,4.81
2019-07-24 18:22:45.109375,2.87
2019-07-24 18:22:45.125000,-1.18
2019-07-24 18:22:45.140625,-5.01
2019-07-24 18:22:45.156250,-6.36
2019-07-24 18:22:45.171875,-4.53
2019-07-24 18:22:45.187500,-0.64
2019-07-24 18:22:45.203125,2.95
2019-07-24 18:22:45.218750,4.14
2019-07-24 18:22:45.234375,2.28
2019-07-24 18:22:45.250000,-1.39
2019-07-24 18:22:45.265625,-4.55
2019-07-24 18:22:45.281250,-5.18
2019-07-24 18:22:45.296875,-2.79
2019-07-24 18:22:45.312500,1.2
2019-07-24 18:22:45.328125,4.48
2019-07-24 18:22:45.343750,5.14
2019-07-24 18:22:45.359375,2.93
2019-07-24 18:22:45.375000,-0.63
2019-07-24 18:22:45.390625,-3.27
2019-07-24 18:22:45.406250,-3.38
2019-07-24 18:22:45.421875,-1.1
2019-07-24 18:22:45.437500,1.78
2019-07-24 18:22:45.453125,3.0
2019-07-24 18:22:45.468750,1.19
2019-07-24 18:22:45.484375,-3.12
2019-07-24 18:22:45.500000,-7.83
2019-07-24 18:22:45.515625,-10.48
2019-07-24 18:22:45.531250,-9.61
2019-07-24 18:22:45.546875,-5.78
2019-07-24 18:22:45.562500,-1.09
2019-07-24 18:22:45.578125,1.79
2019-07-24 18:22:45.593750,1.31
2019-07-24 18:22:45.609375,-2.34
2019-07-24 18:22:45.625000,-7.24
2019-07-24 18:22:45.640625,-11.02
2019-07-24 18:22:45.656250,-12.0
2019-07-24 18:22:45.671875,-10.2
2019-07-24 18:22:45.687500,-7.05
2019-07-24 18:22:45.703125,-4.65
2019-07-24 18:22:45.718750,-4.39
2019-07-24 18:22:45.734375,-6.3
2019-07-24 18:22:45.750000,-8.97
2019-07-24 18:22:45.765625,-10.52
2019-07-24 18:22:45.781250,-9.64
2019-07-24 18:22:45.796875,-6.48
2019-07-24 18:22:45.812500,-2.6
2019-07-24 18:22:45.828125,0.1
2019-07-24 18:22:45.843750,0.38
2019-07-24 18:22:45.859375,-1.43
2019-07-24 18:22:45.875000,-3.71
2019-07-24 18:22:45.890625,-4.44
2019-07-24 18:22:45.906250,-2.53
2019-07-24 18:22:45.921875,1.6
2019-07-24 18:22:45.937500,6.2
2019-07-24 18:22:45.953125,9.3
2019-07-24 18:22:45.968750,9.89
2019-07-24 18:22:45.984375,8.57
2019-07-24 18:22:46.000000,7.12
2019-07-24 18:22:46.015625,7.43
2019-07-24 18:22:46.031250,10.3
2019-07-24 18:22:46.046875,14.87
2019-07-24 18:22:46.062500,19.07
2019-07-24 18:22:46.078125,20.74
2019-07-24 18:22:46.093750,18.92
2019-07-24 18:22:46.109375,14.36
2019-07-24 18:22:46.125000,9.21
2019-07-24 18:22:46.140625,5.75
2019-07-24 18:22:46.156250,5.18
2019-07-24 18:22:46.171875,6.85
2019-07-24 18:22:46.187500,8.72
2019-07-24 18:22:46.203125,8.54
2019-07-24 18:22:46.218750,5.17
2019-07-24 18:22:46.234375,-0.64
2019-07-24 18:22:46.250000,-6.67
2019-07-24 18:22:46.265625,-10.41
2019-07-24 18:22:46.281250,-10.56
2019-07-24 18:22:46.296875,-7.63
2019-07-24 18:22:46.312500,-3.81
2019-07-24 18:22:46.328125,-1.59
2019-07-24 18:22:46.343750,-2.39
2019-07-24 18:22:46.359375,-5.87
2019-07-24 18:22:46.375000,-10.08
2019-07-24 18:22:46.390625,-12.72
2019-07-24 18:22:46.406250,-12.4
2019-07-24 18:22:46.421875,-9.5
2019-07-24 18:22:46.437500,-5.71
2019-07-24 18:22:46.453125,-3.17
2019-07-24 18:22:46.468750,-3.09
2019-07-24 18:22:46.484375,-5.26
2019-07-24 18:22:46.500000,-8.14
2019-07-24 18:22:46.515625,-9.85
2019-07-24 18:22:46.531250,-9.25
2019-07-24 18:22:46.546875,-6.6
2019-07-24 18:22:46.562500,-3.48
2019-07-24 18:22:46.578125,-1.75
2019-07-24 18:22:46.593750,-2.43
2019-07-24 18:22:46.609375,-5.06
2019-07-24 18:22:46.625000,-7.9
2019-07-24 18:22:46.640625,-8.88
2019-07-24 18:22:46.656250,-6.81
2019-07-24 18:22:46.671875,-1.96
2019-07-24 18:22:46.687500,3.73
2019-07-24 18:22:46.703125,8.06
2019-07-24 18:22:46.718750,9.59
2019-07-24 18:22:46.734375,8.63
2019-07-24 18:22:46.750000,6.93
2019-07-24 18:22:46.765625,6.7
2019-07-24 18:22:46.781250,9.02
2019-07-24 18:22:46.796875,13.3
2019-07-24 18:22:46.812500,17.23
2019-07-24 18:22:46.828125,18.36
2019-07-24 18:22:46.843750,15.71
2019-07-24 18:22:46.859375,10.26
2019-07-24 18:22:46.875000,4.87
2019-07-24 18:22:46.890625,2.39
2019-07-24 18:22:46.906250,4.29
2019-07-24 18:22:46.921875,9.5
2019-07-24 18:22:46.937500,15.04
2019-07-24 18:22:46.953125,17.6
2019-07-24 18:22:46.968750,15.71
2019-07-24 18:22:46.984375,10.48
2019-07-24 18:22:47.000000,5.1
2019-07-24 18:22:47.015625,2.99
2019-07-24 18:22:47.031250,5.54
2019-07-24 18:22:47.046875,11.65
2019-07-24 18:22:47.062500,17.88
2019-07-24 18:22:47.078125,20.77
2019-07-24 18:22:47.093750,18.72
2019-07-24 18:22:47.109375,13.02
2019-07-24 18:22:47.125000,6.87
2019-07-24 18:22:47.140625,3.56
2019-07-24 18:22:47.156250,4.29
2019-07-24 18:22:47.171875,7.79
2019-07-24 18:22:47.187500,10.91
2019-07-24 18:22:47.203125,10.64
2019-07-24 18:22:47.218750,5.93
2019-07-24 18:22:47.234375,-1.85
2019-07-24 18:22:47.250000,-9.55
2019-07-24 18:22:47.265625,-14.21
2019-07-24 18:22:47.281250,-14.56
2019-07-24 18:22:47.296875,-11.58
2019-07-24 18:22:47.312500,-7.91
2019-07-24 18:22:47.328125,-6.29
2019-07-24 18:22:47.343750,-7.92
2019-07-24 18:22:47.359375,-11.96
2019-07-24 18:22:47.375000,-15.79
2019-07-24 18:22:47.390625,-16.8
2019-07-24 18:22:47.406250,-13.97
2019-07-24 18:22:47.421875,-8.49
2019-07-24 18:22:47.437500,-3.28
2019-07-24 18:22:47.453125,-1.31
2019-07-24 18:22:47.468750,-3.84
2019-07-24 18:22:47.484375,-9.49
2019-07-24 18:22:47.500000,-15.01
2019-07-24 18:22:47.515625,-16.94
2019-07-24 18:22:47.531250,-13.84
2019-07-24 18:22:47.546875,-7.07
2019-07-24 18:22:47.562500,-0.23
2019-07-24 18:22:47.578125,2.91
2019-07-24 18:22:47.593750,0.68
2019-07-24 18:22:47.609375,-5.54
2019-07-24 18:22:47.625000,-11.93
2019-07-24 18:22:47.640625,-14.59
2019-07-24 18:22:47.656250,-11.76
2019-07-24 18:22:47.671875,-4.9
2019-07-24 18:22:47.687500,2.09
2019-07-24 18:22:47.703125,5.23
2019-07-24 18:22:47.718750,2.85
2019-07-24 18:22:47.734375,-3.39
2019-07-24 18:22:47.750000,-9.38
2019-07-24 18:22:47.765625,-11.14
2019-07-24 18:22:47.781250,-7.12
2019-07-24 18:22:47.796875,0.74
2019-07-24 18:22:47.812500,8.23
2019-07-24 18:22:47.828125,11.17
2019-07-24 18:22:47.843750,8.07
2019-07-24 18:22:47.859375,0.82
2019-07-24 18:22:47.875000,-6.28
2019-07-24 18:22:47.890625,-9.15
2019-07-24 18:22:47.906250,-6.25
2019-07-24 18:22:47.921875,0.52
2019-07-24 18:22:47.937500,6.8
2019-07-24 18:22:47.953125,8.68
2019-07-24 18:22:47.968750,4.67
2019-07-24 18:22:47.984375,-3.01
2019-07-24 18:22:48.000000,-10.03
2019-07-24 18:22:48.015625,-12.2
2019-07-24 18:22:48.031250,-8.09
2019-07-24 18:22:48.046875,0.04
2019-07-24 18:22:48.062500,7.67
2019-07-24 18:22:48.078125,10.47
2019-07-24 18:22:48.093750,7.07
2019-07-24 18:22:48.109375,-0.36
2019-07-24 18:22:48.125000,-7.1
2019-07-24 18:22:48.140625,-9.03
2019-07-24 18:22:48.156250,-4.85
2019-07-24 18:22:48.171875,3.01
2019-07-24 18:22:48.187500,9.85
2019-07-24 18:22:48.203125,11.63
2019-07-24 18:22:48.218750,7.15
2019-07-24 18:22:48.234375,-1.07
2019-07-24 18:22:48.250000,-8.45
2019-07-24 18:22:48.265625,-11.06
2019-07-24 18:22:48.281250,-7.96
2019-07-24 18:22:48.296875,-1.59
2019-07-24 18:22:48.312500,3.75
2019-07-24 18:22:48.328125,4.53
2019-07-24 18:22:48.343750,0.33
2019-07-24 18:22:48.359375,-6.09
2019-07-24 18:22:48.375000,-10.4
2019-07-24 18:22:48.390625,-9.38
2019-07-24 18:22:48.406250,-3.05
2019-07-24 18:22:48.421875,5.44
2019-07-24 18:22:48.437500,11.33
2019-07-24 18:22:48.453125,11.3
2019-07-24 18:22:48.468750,5.24
2019-07-24 18:22:48.484375,-3.41
2019-07-24 18:22:48.500000,-9.87
2019-07-24 18:22:48.515625,-10.47
2019-07-24 18:22:48.531250,-4.99
2019-07-24 18:22:48.546875,3.45
2019-07-24 18:22:48.562500,9.95
2019-07-24 18:22:48.578125,10.76
2019-07-24 18:22:48.593750,5.38
2019-07-24 18:22:48.609375,-3.25
2019-07-24 18:22:48.625000,-10.41
2019-07-24 18:22:48.640625,-12.62
2019-07-24 18:22:48.656250,-9.4
2019-07-24 18:22:48.671875,-3.57
2019-07-24 18:22:48.687500,0.71
2019-07-24 18:22:48.703125,0.56
2019-07-24 18:22:48.718750,-3.8
2019-07-24 18:22:48.734375,-9.24
2019-07-24 18:22:48.750000,-11.52
2019-07-24 18:22:48.765625,-8.21
2019-07-24 18:22:48.781250,-0.15
2019-07-24 18:22:48.796875,8.8
2019-07-24 18:22:48.812500,14.08
2019-07-24 18:22:48.828125,12.96
2019-07-24 18:22:48.843750,6.23
2019-07-24 18:22:48.859375,-2.15
2019-07-24 18:22:48.875000,-7.41
2019-07-24 18:22:48.890625,-6.49
2019-07-24 18:22:48.906250,0.14
2019-07-24 18:22:48.921875,8.98
2019-07-24 18:22:48.937500,15.34
2019-07-24 18:22:48.953125,16.18
2019-07-24 18:22:48.968750,11.49
2019-07-24 18:22:48.984375,4.46
2019-07-24 18:22:49.000000,-0.71
2019-07-24 18:22:49.015625,-1.07
2019-07-24 18:22:49.031250,3.18
2019-07-24 18:22:49.046875,9.1
2019-07-24 18:22:49.062500,12.63
2019-07-24 18:22:49.078125,11.3
2019-07-24 18:22:49.093750,5.57
2019-07-24 18:22:49.109375,-1.32
2019-07-24 18:22:49.125000,-5.49
2019-07-24 18:22:49.140625,-4.6
2019-07-24 18:22:49.156250,0.46
2019-07-24 18:22:49.171875,6.36
2019-07-24 18:22:49.187500,8.94
2019-07-24 18:22:49.203125,6.11
2019-07-24 18:22:49.218750,-1.25
2019-07-24 18:22:49.234375,-9.44
2019-07-24 18:22:49.250000,-14.25
2019-07-24 18:22:49.265625,-13.35
2019-07-24 18:22:49.281250,-7.48
2019-07-24 18:22:49.296875,-0.22
2019-07-24 18:22:49.312500,4.37
2019-07-24 18:22:49.328125,3.74
2019-07-24 18:22:49.343750,-1.42
2019-07-24 18:22:49.359375,-7.92
2019-07-24 18:22:49.375000,-11.59
2019-07-24 18:22:49.390625,-9.99
2019-07-24 18:22:49.406250,-3.57
2019-07-24 18:22:49.421875,4.3
2019-07-24 18:22:49.437500,9.32
2019-07-24 18:22:49.453125,8.55
2019-07-24 18:22:49.468750,2.34
2019-07-24 18:22:49.484375,-5.88
2019-07-24 18:22:49.500000,-11.46
2019-07-24 18:22:49.515625,-11.24
2019-07-24 18:22:49.531250,-5.41
2019-07-24 18:22:49.546875,2.57
2019-07-24 18:22:49.562500,7.95
2019-07-24 18:22:49.578125,7.44
2019-07-24 18:22:49.593750,1.35
2019-07-24 18:22:49.609375,-6.69
2019-07-24 18:22:49.625000,-11.76
2019-07-24 18:22:49.640625,-10.77
2019-07-24 18:22:49.656250,-4.19
2019-07-24 18:22:49.671875,4.15
2019-07-24 18:22:49.687500,9.41
2019-07-24 18:22:49.703125,8.7
2019-07-24 18:22:49.718750,2.72
2019-07-24 18:22:49.734375,-4.67
2019-07-24 18:22:49.750000,-8.75
2019-07-24 18:22:49.765625,-6.92
2019-07-24 18:22:49.781250,-0.12
2019-07-24 18:22:49.796875,7.48
2019-07-24 18:22:49.812500,11.19
2019-07-24 18:22:49.828125,8.35
2019-07-24 18:22:49.843750,0.12
2019-07-24 18:22:49.859375,-9.36
2019-07-24 18:22:49.875000,-15.04
2019-07-24 18:22:49.890625,-14.07
2019-07-24 18:22:49.906250,-7.22
2019-07-24 18:22:49.921875,1.59
2019-07-24 18:22:49.937500,7.6
2019-07-24 18:22:49.953125,7.84
2019-07-24 18:22:49.968750,2.89
2019-07-24 18:22:49.984375,-3.73
2019-07-24 18:22:50.000000,-7.7
2019-07-24 18:22:50.015625,-6.5
2019-07-24 18:22:50.031250,-0.95
2019-07-24 18:22:50.046875,5.35
2019-07-24 18:22:50.062500,8.31
2019-07-24 18:22:50.078125,5.84
2019-07-24 18:22:50.093750,-0.72
2019-07-24 18:22:50.109375,-7.41
2019-07-24 18:22:50.125000,-9.93
2019-07-24 18:22:50.140625,-6.39
2019-07-24 18:22:50.156250,1.65
2019-07-24 18:22:50.171875,9.83
2019-07-24 18:22:50.187500,13.69
2019-07-24 18:22:50.203125,11.15
2019-07-24 18:22:50.218750,3.96
2019-07-24 18:22:50.234375,-3.65
2019-07-24 18:22:50.250000,-7.14
2019-07-24 18:22:50.265625,-4.69
2019-07-24 18:22:50.281250,2.08
2019-07-24 18:22:50.296875,8.87
2019-07-24 18:22:50.312500,11.38
2019-07-24 18:22:50.328125,7.79
2019-07-24 18:22:50.343750,-0.15
2019-07-24 18:22:50.359375,-8.25
2019-07-24 18:22:50.375000,-12.23
2019-07-24 18:22:50.390625,-10.2
2019-07-24 18:22:50.406250,-3.76
2019-07-24 18:22:50.421875,3.09
2019-07-24 18:22:50.437500,6.26
2019-07-24 18:22:50.453125,4.02
2019-07-24 18:22:50.468750,-2.13
2019-07-24 18:22:50.484375,-8.1
2019-07-24 18:22:50.500000,-10.1
2019-07-24 18:22:50.515625,-6.54
2019-07-24 18:22:50.531250,0.55
2019-07-24 18:22:50.546875,7.06
2019-07-24 18:22:50.562500,8.97
2019-07-24 18:22:50.578125,5.15
2019-07-24 18:22:50.593750,-2.21
2019-07-24 18:22:50.609375,-8.65
2019-07-24 18:22:50.625000,-10.03
2019-07-24 18:22:50.640625,-5.13
2019-07-24 18:22:50.656250,3.79
2019-07-24 18:22:50.671875,12.06
2019-07-24 18:22:50.687500,15.41
2019-07-24 18:22:50.703125,12.17
2019-07-24 18:22:50.718750,4.47
2019-07-24 18:22:50.734375,-3.36
2019-07-24 18:22:50.750000,-6.93
2019-07-24 18:22:50.765625,-4.55
2019-07-24 18:22:50.781250,2.06
2019-07-24 18:22:50.796875,8.69
2019-07-24 18:22:50.812500,11.14
2019-07-24 18:22:50.828125,7.63
2019-07-24 18:22:50.843750,-0.14
2019-07-24 18:22:50.859375,-7.92
2019-07-24 18:22:50.875000,-11.43
2019-07-24 18:22:50.890625,-8.73
2019-07-24 18:22:50.906250,-1.44
2019-07-24 18:22:50.921875,6.3
2019-07-24 18:22:50.937500,10.14
2019-07-24 18:22:50.953125,8.22
2019-07-24 18:22:50.968750,1.95
2019-07-24 18:22:50.984375,-4.56
2019-07-24 18:22:51.000000,-7.44
2019-07-24 18:22:51.015625,-5.0
2019-07-24 18:22:51.031250,0.96
2019-07-24 18:22:51.046875,6.39
2019-07-24 18:22:51.062500,7.48
2019-07-24 18:22:51.078125,2.98
2019-07-24 18:22:51.093750,-4.9
2019-07-24 18:22:51.109375,-12.0
2019-07-24 18:22:51.125000,-14.39
2019-07-24 18:22:51.140625,-11.12
2019-07-24 18:22:51.156250,-4.43
2019-07-24 18:22:51.171875,1.22
2019-07-24 18:22:51.187500,2.14
2019-07-24 18:22:51.203125,-2.61
2019-07-24 18:22:51.218750,-10.51
2019-07-24 18:22:51.234375,-17.22
2019-07-24 18:22:51.250000,-19.16
2019-07-24 18:22:51.265625,-15.63
2019-07-24 18:22:51.281250,-9.27
2019-07-24 18:22:51.296875,-4.51
2019-07-24 18:22:51.312500,-4.73
2019-07-24 18:22:51.328125,-10.37
2019-07-24 18:22:51.343750,-18.62
2019-07-24 18:22:51.359375,-25.05
2019-07-24 18:22:51.375000,-26.24
2019-07-24 18:22:51.390625,-21.82
2019-07-24 18:22:51.406250,-14.57
2019-07-24 18:22:51.421875,-8.73
2019-07-24 18:22:51.437500,-7.86
2019-07-24 18:22:51.453125,-12.51
2019-07-24 18:22:51.468750,-20.31
2019-07-24 18:22:51.484375,-27.23
2019-07-24 18:22:51.500000,-30.25
2019-07-24 18:22:51.515625,-29.01
2019-07-24 18:22:51.531250,-26.22
2019-07-24 18:22:51.546875,-25.84
2019-07-24 18:22:51.562500,-30.53
2019-07-24 18:22:51.578125,-40.51
2019-07-24 18:22:51.593750,-52.32
2019-07-24 18:22:51.609375,-61.13
2019-07-24 18:22:51.625000,-63.14
2019-07-24 18:22:51.640625,-58.18
2019-07-24 18:22:51.656250,-49.86
2019-07-24 18:22:51.671875,-44.11
2019-07-24 18:22:51.687500,-46.08
2019-07-24 18:22:51.703125,-56.82
2019-07-24 18:22:51.718750,-74.23
2019-07-24 18:22:51.734375,-92.1
2019-07-24 18:22:51.750000,-103.84
2019-07-24 18:22:51.765625,-105.17
2019-07-24 18:22:51.781250,-95.85
2019-07-24 18:22:51.796875,-79.45
2019-07-24 18:22:51.812500,-61.37
2019-07-24 18:22:51.828125,-46.46
2019-07-24 18:22:51.843750,-36.07
2019-07-24 18:22:51.859375,-30.64
2019-07-24 18:22:51.875000,-27.27
2019-07-24 18:22:51.890625,-22.38
2019-07-24 18:22:51.906250,-12.59
2019-07-24 18:22:51.921875,4.78
2019-07-24 18:22:51.937500,32.05
2019-07-24 18:22:51.953125,71.14
2019-07-24 18:22:51.968750,122.61
2019-07-24 18:22:51.984375,186.47
2019-07-24 18:22:52.000000,257.24
2019-07-24 18:22:52.015625,328.49
2019-07-24 18:22:52.031250,392.84
2019-07-24 18:22:52.046875,444.53
2019-07-24 18:22:52.062500,480.93
2019-07-24 18:22:52.078125,503.12
2019-07-24 18:22:52.093750,514.73
2019-07-24 18:22:52.109375,511.75
2019-07-24 18:22:52.125000,505.72
2019-07-24 18:22:52.140625,493.54
2019-07-24 18:22:52.156250,470.91
2019-07-24 18:22:52.171875,433.2
2019-07-24 18:22:52.187500,379.14
2019-07-24 18:22:52.203125,312.87
2019-07-24 18:22:52.218750,243.73
2019-07-24 18:22:52.234375,182.57
2019-07-24 18:22:52.250000,136.14
2019-07-24 18:22:52.265625,104.23
2019-07-24 18:22:52.281250,76.09
2019-07-24 18:22:52.296875,39.43
2019-07-24 18:22:52.312500,-13.77
2019-07-24 18:22:52.328125,-82.22
2019-07-24 18:22:52.343750,-155.77
2019-07-24 18:22:52.359375,-221.05
2019-07-24 18:22:52.375000,-268.45
2019-07-24 18:22:52.390625,-296.21
2019-07-24 18:22:52.406250,-308.57
2019-07-24 18:22:52.421875,-313.93
2019-07-24 18:22:52.437500,-316.83
2019-07-24 18:22:52.453125,-316.74
2019-07-24 18:22:52.468750,-310.43
2019-07-24 18:22:52.484375,-295.09
2019-07-24 18:22:52.500000,-271.49
2019-07-24 18:22:52.515625,-244.3
2019-07-24 18:22:52.531250,-219.82
2019-07-24 18:22:52.546875,-202.41
2019-07-24 18:22:52.562500,-194.15
2019-07-24 18:22:52.578125,-192.58
2019-07-24 18:22:52.593750,-192.33
2019-07-24 18:22:52.609375,-187.85
2019-07-24 18:22:52.625000,-175.66
2019-07-24 18:22:52.640625,-156.22
2019-07-24 18:22:52.656250,-133.65
2019-07-24 18:22:52.671875,-113.88
2019-07-24 18:22:52.687500,-100.92
2019-07-24 18:22:52.703125,-95.74
2019-07-24 18:22:52.718750,-94.9
2019-07-24 18:22:52.734375,-92.81
2019-07-24 18:22:52.750000,-85.23
2019-07-24 18:22:52.765625,-71.5
2019-07-24 18:22:52.781250,-54.86
2019-07-24 18:22:52.796875,-40.4
2019-07-24 18:22:52.812500,-32.18
2019-07-24 18:22:52.828125,-30.64
2019-07-24 18:22:52.843750,-33.1
2019-07-24 18:22:52.859375,-34.83
2019-07-24 18:22:52.875000,-32.11
2019-07-24 18:22:52.890625,-24.22
2019-07-24 18:22:52.906250,-13.92
2019-07-24 18:22:52.921875,-5.6
2019-07-24 18:22:52.937500,-2.74
2019-07-24 18:22:52.953125,-5.67
2019-07-24 18:22:52.968750,-11.37
2019-07-24 18:22:52.984375,-15.22
2019-07-24 18:22:53.000000,-13.81
2019-07-24 18:22:53.015625,-7.22
2019-07-24 18:22:53.031250,1.06
2019-07-24 18:22:53.046875,6.21
2019-07-24 18:22:53.062500,5.41
2019-07-24 18:22:53.078125,-0.58
2019-07-24 18:22:53.093750,-7.56
2019-07-24 18:22:53.109375,-10.89
2019-07-24 18:22:53.125000,-8.27
2019-07-24 18:22:53.140625,-1.33
2019-07-24 18:22:53.156250,5.54
2019-07-24 18:22:53.171875,7.92
2019-07-24 18:22:53.187500,4.33
2019-07-24 18:22:53.203125,-3.01
2019-07-24 18:22:53.218750,-9.62
2019-07-24 18:22:53.234375,-11.34
2019-07-24 18:22:53.250000,-6.97
2019-07-24 18:22:53.265625,1.24
2019-07-24 18:22:53.281250,9.0
2019-07-24 18:22:53.296875,12.53
2019-07-24 18:22:53.312500,10.69
2019-07-24 18:22:53.328125,5.7
2019-07-24 18:22:53.343750,1.72
2019-07-24 18:22:53.359375,2.45
2019-07-24 18:22:53.375000,8.92
2019-07-24 18:22:53.390625,18.61
2019-07-24 18:22:53.406250,26.49
2019-07-24 18:22:53.421875,27.81
2019-07-24 18:22:53.437500,20.93
2019-07-24 18:22:53.453125,8.31
2019-07-24 18:22:53.468750,-4.46
2019-07-24 18:22:53.484375,-11.77
2019-07-24 18:22:53.500000,-10.9
2019-07-24 18:22:53.515625,-3.59
2019-07-24 18:22:53.531250,5.42
2019-07-24 18:22:53.546875,11.03
2019-07-24 18:22:53.562500,10.98
2019-07-24 18:22:53.578125,6.81
2019-07-24 18:22:53.593750,2.77
2019-07-24 18:22:53.609375,3.01
2019-07-24 18:22:53.625000,8.73
2019-07-24 18:22:53.640625,17.58
2019-07-24 18:22:53.656250,24.74
2019-07-24 18:22:53.671875,25.79
2019-07-24 18:22:53.687500,19.26
2019-07-24 18:22:53.703125,7.61
2019-07-24 18:22:53.718750,-4.26
2019-07-24 18:22:53.734375,-11.55
2019-07-24 18:22:53.750000,-12.03
2019-07-24 18:22:53.765625,-7.24
2019-07-24 18:22:53.781250,-1.26
2019-07-24 18:22:53.796875,1.59
2019-07-24 18:22:53.812500,-0.55
2019-07-24 18:22:53.828125,-6.04
2019-07-24 18:22:53.843750,-10.72
2019-07-24 18:22:53.859375,-10.5
2019-07-24 18:22:53.875000,-3.92
2019-07-24 18:22:53.890625,6.75
2019-07-24 18:22:53.906250,16.7
2019-07-24 18:22:53.921875,21.22
2019-07-24 18:22:53.937500,18.51
2019-07-24 18:22:53.953125,10.6
2019-07-24 18:22:53.968750,2.19
2019-07-24 18:22:53.984375,-2.15
2019-07-24 18:22:54.000000,-0.52
2019-07-24 18:22:54.015625,5.12
2019-07-24 18:22:54.031250,10.34
2019-07-24 18:22:54.046875,10.8
2019-07-24 18:22:54.062500,4.96
2019-07-24 18:22:54.078125,-5.06
2019-07-24 18:22:54.093750,-14.55
2019-07-24 18:22:54.109375,-18.9
2019-07-24 18:22:54.125000,-16.33
2019-07-24 18:22:54.140625,-8.56
2019-07-24 18:22:54.156250,0.01
2019-07-24 18:22:54.171875,5.07
2019-07-24 18:22:54.187500,4.7
2019-07-24 18:22:54.203125,0.29
2019-07-24 18:22:54.218750,-4.44
2019-07-24 18:22:54.234375,-5.8
2019-07-24 18:22:54.250000,-2.39
2019-07-24 18:22:54.265625,3.9
2019-07-24 18:22:54.281250,9.28
2019-07-24 18:22:54.296875,10.05
2019-07-24 18:22:54.312500,5.08
2019-07-24 18:22:54.328125,-3.34
2019-07-24 18:22:54.343750,-10.86
2019-07-24 18:22:54.359375,-13.29
2019-07-24 18:22:54.375000,-9.07
2019-07-24 18:22:54.390625,-0.06
2019-07-24 18:22:54.406250,9.41
2019-07-24 18:22:54.421875,15.08
2019-07-24 18:22:54.437500,14.9
2019-07-24 18:22:54.453125,10.26
2019-07-24 18:22:54.468750,4.83
2019-07-24 18:22:54.484375,2.32
2019-07-24 18:22:54.500000,4.22
2019-07-24 18:22:54.515625,8.97
2019-07-24 18:22:54.531250,12.91
2019-07-24 18:22:54.546875,12.55
2019-07-24 18:22:54.562500,6.94
2019-07-24 18:22:54.578125,-1.87
2019-07-24 18:22:54.593750,-9.66
2019-07-24 18:22:54.609375,-12.63
2019-07-24 18:22:54.625000,-9.38
2019-07-24 18:22:54.640625,-1.84
2019-07-24 18:22:54.656250,6.02
2019-07-24 18:22:54.671875,10.33
2019-07-24 18:22:54.687500,9.53
2019-07-24 18:22:54.703125,5.07
2019-07-24 18:22:54.718750,0.36
2019-07-24 18:22:54.734375,-1.23
2019-07-24 18:22:54.750000,1.64
2019-07-24 18:22:54.765625,7.61
2019-07-24 18:22:54.781250,13.38
2019-07-24 18:22:54.796875,15.65
2019-07-24 18:22:54.812500,12.85
2019-07-24 18:22:54.828125,6.16
2019-07-24 18:22:54.843750,-1.31
2019-07-24 18:22:54.859375,-6.17
2019-07-24 18:22:54.875000,-6.68
2019-07-24 18:22:54.890625,-3.66
2019-07-24 18:22:54.906250,0.11
2019-07-24 18:22:54.921875,1.6
2019-07-24 18:22:54.937500,-0.64
2019-07-24 18:22:54.953125,-5.42
2019-07-24 18:22:54.968750,-9.66
2019-07-24 18:22:54.984375,-10.25
2019-07-24 18:22:55.000000,-6.07
2019-07-24 18:22:55.015625,1.14
2019-07-24 18:22:55.031250,7.72
2019-07-24 18:22:55.046875,10.03
2019-07-24 18:22:55.062500,6.77
2019-07-24 18:22:55.078125,-0.37
2019-07-24 18:22:55.093750,-7.46
2019-07-24 18:22:55.109375,-10.93
2019-07-24 18:22:55.125000,-9.27
2019-07-24 18:22:55.140625,-4.17
2019-07-24 18:22:55.156250,0.81
2019-07-24 18:22:55.171875,2.35
2019-07-24 18:22:55.187500,-0.5
2019-07-24 18:22:55.203125,-5.7
2019-07-24 18:22:55.218750,-9.6
2019-07-24 18:22:55.234375,-8.97
2019-07-24 18:22:55.250000,-3.41
2019-07-24 18:22:55.265625,4.52
2019-07-24 18:22:55.281250,10.47
2019-07-24 18:22:55.296875,11.04
2019-07-24 18:22:55.312500,5.81
2019-07-24 18:22:55.328125,-2.41
2019-07-24 18:22:55.343750,-9.1
2019-07-24 18:22:55.359375,-10.82
2019-07-24 18:22:55.375000,-7.07
2019-07-24 18:22:55.390625,-0.65
2019-07-24 18:22:55.406250,4.3
2019-07-24 18:22:55.421875,4.82
2019-07-24 18:22:55.437500,0.81
2019-07-24 18:22:55.453125,-4.82
2019-07-24 18:22:55.468750,-8.09
2019-07-24 18:22:55.484375,-6.25
2019-07-24 18:22:55.500000,0.4
2019-07-24 18:22:55.515625,8.8
2019-07-24 18:22:55.531250,14.75
2019-07-24 18:22:55.546875,15.28
2019-07-24 18:22:55.562500,10.34
2019-07-24 18:22:55.578125,2.57
2019-07-24 18:22:55.593750,-3.89
2019-07-24 18:22:55.609375,-6.02
2019-07-24 18:22:55.625000,-3.22
2019-07-24 18:22:55.640625,2.08
2019-07-24 18:22:55.656250,6.22
2019-07-24 18:22:55.671875,6.12
2019-07-24 18:22:55.687500,1.39
2019-07-24 18:22:55.703125,-5.44
2019-07-24 18:22:55.718750,-10.46
2019-07-24 18:22:55.734375,-10.58
2019-07-24 18:22:55.750000,-5.4
2019-07-24 18:22:55.765625,2.48
2019-07-24 18:22:55.781250,8.94
2019-07-24 18:22:55.796875,10.89
2019-07-24 18:22:55.812500,7.87
2019-07-24 18:22:55.828125,2.45
2019-07-24 18:22:55.843750,-1.6
2019-07-24 18:22:55.859375,-1.47
2019-07-24 18:22:55.875000,2.74
2019-07-24 18:22:55.890625,8.36
2019-07-24 18:22:55.906250,11.47
2019-07-24 18:22:55.921875,9.62
2019-07-24 18:22:55.937500,3.23
2019-07-24 18:22:55.953125,-4.57
2019-07-24 18:22:55.968750,-9.69
2019-07-24 18:22:55.984375,-9.54
2019-07-24 18:22:56.000000,-4.48
2019-07-24 18:22:56.015625,2.28
2019-07-24 18:22:56.031250,6.7
2019-07-24 18:22:56.046875,6.14
2019-07-24 18:22:56.062500,1.07
2019-07-24 18:22:56.078125,-5.25
2019-07-24 18:22:56.093750,-8.64
2019-07-24 18:22:56.109375,-6.62
2019-07-24 18:22:56.125000,0.25
2019-07-24 18:22:56.140625,8.36
2019-07-24 18:22:56.156250,13.37
2019-07-24 18:22:56.171875,12.48
2019-07-24 18:22:56.187500,6.27
2019-07-24 18:22:56.203125,-1.84
2019-07-24 18:22:56.218750,-7.37
2019-07-24 18:22:56.234375,-7.54
2019-07-24 18:22:56.250000,-2.66
2019-07-24 18:22:56.265625,4.1
2019-07-24 18:22:56.281250,8.51
2019-07-24 18:22:56.296875,7.95
2019-07-24 18:22:56.312500,2.73
2019-07-24 18:22:56.328125,-3.94
2019-07-24 18:22:56.343750,-8.18
2019-07-24 18:22:56.359375,-7.54
2019-07-24 18:22:56.375000,-2.63
2019-07-24 18:22:56.390625,3.56
2019-07-24 18:22:56.406250,7.22
2019-07-24 18:22:56.421875,6.35
2019-07-24 18:22:56.437500,1.71
2019-07-24 18:22:56.453125,-3.54
2019-07-24 18:22:56.468750,-5.83
2019-07-24 18:22:56.484375,-3.43
2019-07-24 18:22:56.500000,2.5
2019-07-24 18:22:56.515625,8.38
2019-07-24 18:22:56.531250,10.54
2019-07-24 18:22:56.546875,7.16
2019-07-24 18:22:56.562500,-0.3
2019-07-24 18:22:56.578125,-8.01
2019-07-24 18:22:56.593750,-11.72
2019-07-24 18:22:56.609375,-9.25
2019-07-24 18:22:56.625000,-1.69
2019-07-24 18:22:56.640625,7.02
2019-07-24 18:22:56.656250,12.29
2019-07-24 18:22:56.671875,11.28
2019-07-24 18:22:56.687500,4.56
2019-07-24 18:22:56.703125,-4.21
2019-07-24 18:22:56.718750,-10.24
2019-07-24 18:22:56.734375,-10.37
2019-07-24 18:22:56.750000,-4.8
2019-07-24 18:22:56.765625,3.04
2019-07-24 18:22:56.781250,8.55
2019-07-24 18:22:56.796875,8.71
2019-07-24 18:22:56.812500,3.8
2019-07-24 18:22:56.828125,-2.77
2019-07-24 18:22:56.843750,-6.8
2019-07-24 18:22:56.859375,-5.81
2019-07-24 18:22:56.875000,-0.66
2019-07-24 18:22:56.890625,5.26
2019-07-24 18:22:56.906250,7.93
2019-07-24 18:22:56.921875,5.59
2019-07-24 18:22:56.937500,-0.43
2019-07-24 18:22:56.953125,-6.45
2019-07-24 18:22:56.968750,-8.79
2019-07-24 18:22:56.984375,-6.07
2019-07-24 18:22:57.000000,0.05
2019-07-24 18:22:57.015625,5.72
2019-07-24 18:22:57.031250,7.34
2019-07-24 18:22:57.046875,3.5
2019-07-24 18:22:57.062500,-3.99
2019-07-24 18:22:57.078125,-11.31
2019-07-24 18:22:57.093750,-14.71
2019-07-24 18:22:57.109375,-12.66
2019-07-24 18:22:57.125000,-6.61
2019-07-24 18:22:57.140625,-0.01
2019-07-24 18:22:57.156250,3.6
2019-07-24 18:22:57.171875,2.8
2019-07-24 18:22:57.187500,-1.14
2019-07-24 18:22:57.203125,-4.98
2019-07-24 18:22:57.218750,-5.55
2019-07-24 18:22:57.234375,-1.75
2019-07-24 18:22:57.250000,4.81
2019-07-24 18:22:57.265625,10.56
2019-07-24 18:22:57.281250,12.34
2019-07-24 18:22:57.296875,9.06
2019-07-24 18:22:57.312500,2.63
2019-07-24 18:22:57.328125,-3.23
2019-07-24 18:22:57.343750,-5.0
2019-07-24 18:22:57.359375,-1.46
2019-07-24 18:22:57.375000,5.64
2019-07-24 18:22:57.390625,12.51
2019-07-24 18:22:57.406250,15.36
2019-07-24 18:22:57.421875,12.6
2019-07-24 18:22:57.437500,5.67
2019-07-24 18:22:57.453125,-1.7
2019-07-24 18:22:57.468750,-5.66
2019-07-24 18:22:57.484375,-4.52
2019-07-24 18:22:57.500000,0.41
2019-07-24 18:22:57.515625,5.48
2019-07-24 18:22:57.531250,6.99
2019-07-24 18:22:57.546875,3.31
2019-07-24 18:22:57.562500,-3.91
2019-07-24 18:22:57.578125,-10.76
2019-07-24 18:22:57.593750,-13.17
2019-07-24 18:22:57.609375,-9.46
2019-07-24 18:22:57.625000,-1.37
2019-07-24 18:22:57.640625,6.89
2019-07-24 18:22:57.656250,10.86
2019-07-24 18:22:57.671875,8.51
2019-07-24 18:22:57.687500,1.19
2019-07-24 18:22:57.703125,-7.03
2019-07-24 18:22:57.718750,-11.75
2019-07-24 18:22:57.734375,-10.7
2019-07-24 18:22:57.750000,-4.87
2019-07-24 18:22:57.765625,2.1
2019-07-24 18:22:57.781250,6.25
2019-07-24 18:22:57.796875,5.47
2019-07-24 18:22:57.812500,0.71
2019-07-24 18:22:57.828125,-4.78
2019-07-24 18:22:57.843750,-7.4
2019-07-24 18:22:57.859375,-5.55
2019-07-24 18:22:57.875000,-0.44
2019-07-24 18:22:57.890625,4.61
2019-07-24 18:22:57.906250,6.29
2019-07-24 18:22:57.921875,3.27
2019-07-24 18:22:57.937500,-2.82
2019-07-24 18:22:57.953125,-8.3
2019-07-24 18:22:57.968750,-9.57
2019-07-24 18:22:57.984375,-5.31
2019-07-24 18:22:58.000000,2.72
2019-07-24 18:22:58.015625,10.41
2019-07-24 18:22:58.031250,13.74
2019-07-24 18:22:58.046875,10.86
2019-07-24 18:22:58.062500,3.4
2019-07-24 18:22:58.078125,-4.64
2019-07-24 18:22:58.093750,-8.9
2019-07-24 18:22:58.109375,-7.28
2019-07-24 18:22:58.125000,-1.16
2019-07-24 18:22:58.140625,5.49
2019-07-24 18:22:58.156250,8.31
2019-07-24 18:22:58.171875,5.24
2019-07-24 18:22:58.187500,-2.28
2019-07-24 18:22:58.203125,-10.11
2019-07-24 18:22:58.218750,-13.84
2019-07-24 18:22:58.234375,-11.44
2019-07-24 18:22:58.250000,-4.36
2019-07-24 18:22:58.265625,3.33
2019-07-24 18:22:58.281250,7.56
2019-07-24 18:22:58.296875,6.56
2019-07-24 18:22:58.312500,1.89
2019-07-24 18:22:58.328125,-2.73
2019-07-24 18:22:58.343750,-3.84
2019-07-24 18:22:58.359375,-0.53
2019-07-24 18:22:58.375000,5.14
2019-07-24 18:22:58.390625,9.41
2019-07-24 18:22:58.406250,9.29
2019-07-24 18:22:58.421875,4.55
2019-07-24 18:22:58.437500,-2.18
2019-07-24 18:22:58.453125,-6.87
2019-07-24 18:22:58.468750,-6.57
2019-07-24 18:22:58.484375,-1.3
2019-07-24 18:22:58.500000,5.87
2019-07-24 18:22:58.515625,10.61
2019-07-24 18:22:58.531250,9.77
2019-07-24 18:22:58.546875,3.27
2019-07-24 18:22:58.562500,-5.56
2019-07-24 18:22:58.578125,-12.08
2019-07-24 18:22:58.593750,-12.72
2019-07-24 18:22:58.609375,-7.19
2019-07-24 18:22:58.625000,1.41
2019-07-24 18:22:58.640625,8.38
2019-07-24 18:22:58.656250,10.1
2019-07-24 18:22:58.671875,6.06
2019-07-24 18:22:58.687500,-0.99
2019-07-24 18:22:58.703125,-6.75
2019-07-24 18:22:58.718750,-7.99
2019-07-24 18:22:58.734375,-4.33
2019-07-24 18:22:58.750000,1.76
2019-07-24 18:22:58.765625,6.38
2019-07-24 18:22:58.781250,6.79
2019-07-24 18:22:58.796875,2.77
2019-07-24 18:22:58.812500,-3.25
2019-07-24 18:22:58.828125,-7.71
2019-07-24 18:22:58.843750,-8.05
2019-07-24 18:22:58.859375,-4.06
2019-07-24 18:22:58.875000,1.89
2019-07-24 18:22:58.890625,6.59
2019-07-24 18:22:58.906250,7.45
2019-07-24 18:22:58.921875,4.3
2019-07-24 18:22:58.937500,-0.72
2019-07-24 18:22:58.953125,-4.31
2019-07-24 18:22:58.968750,-4.0
2019-07-24 18:22:58.984375,0.4
2019-07-24 18:22:59.000000,6.54
2019-07-24 18:22:59.015625,10.87
2019-07-24 18:22:59.031250,10.76
2019-07-24 18:22:59.046875,5.89
2019-07-24 18:22:59.062500,-1.19
2019-07-24 18:22:59.078125,-6.71
2019-07-24 18:22:59.093750,-7.6
2019-07-24 18:22:59.109375,-3.37
2019-07-24 18:22:59.125000,3.75
2019-07-24 18:22:59.140625,9.93
2019-07-24 18:22:59.156250,11.91
2019-07-24 18:22:59.171875,8.94
2019-07-24 18:22:59.187500,2.94
2019-07-24 18:22:59.203125,-2.45
2019-07-24 18:22:59.218750,-4.15
2019-07-24 18:22:59.234375,-1.4
2019-07-24 18:22:59.250000,3.87
2019-07-24 18:22:59.265625,8.08
2019-07-24 18:22:59.281250,8.17
2019-07-24 18:22:59.296875,3.42
2019-07-24 18:22:59.312500,-3.98
2019-07-24 18:22:59.328125,-10.24
2019-07-24 18:22:59.343750,-11.98
2019-07-24 18:22:59.359375,-8.31
2019-07-24 18:22:59.375000,-1.33
2019-07-24 18:22:59.390625,5.02
2019-07-24 18:22:59.406250,7.16
2019-07-24 18:22:59.421875,3.95
2019-07-24 18:22:59.437500,-2.65
2019-07-24 18:22:59.453125,-8.75
2019-07-24 18:22:59.468750,-10.93
2019-07-24 18:22:59.484375,-8.15
2019-07-24 18:22:59.500000,-2.51
2019-07-24 18:22:59.515625,2.15
2019-07-24 18:22:59.531250,2.68
2019-07-24 18:22:59.546875,-1.52
2019-07-24 18:22:59.562500,-7.93
2019-07-24 18:22:59.578125,-12.53
2019-07-24 18:22:59.593750,-12.2
2019-07-24 18:22:59.609375,-6.89
2019-07-24 18:22:59.625000,0.68
2019-07-24 18:22:59.640625,6.26
2019-07-24 18:22:59.656250,6.93
2019-07-24 18:22:59.671875,2.79
2019-07-24 18:22:59.687500,-3.24
2019-07-24 18:22:59.703125,-7.1
2019-07-24 18:22:59.718750,-6.3
2019-07-24 18:22:59.734375,-1.25
2019-07-24 18:22:59.750000,4.88
2019-07-24 18:22:59.765625,8.35
2019-07-24 18:22:59.781250,6.98
2019-07-24 18:22:59.796875,1.68
2019-07-24 18:22:59.812500,-4.24
2019-07-24 18:22:59.828125,-7.01
2019-07-24 18:22:59.843750,-4.65
2019-07-24 18:22:59.859375,1.7
2019-07-24 18:22:59.875000,8.62
2019-07-24 18:22:59.890625,12.15
2019-07-24 18:22:59.906250,10.3
2019-07-24 18:22:59.921875,3.97
2019-07-24 18:22:59.937500,-3.3
2019-07-24 18:22:59.953125,-7.41
2019-07-24 18:22:59.968750,-5.98
2019-07-24 18:22:59.984375,0.34
2019-07-24 18:23:00.000000,8.01
2019-07-24 18:23:00.015625,12.63
2019-07-24 18:23:00.031250,11.22
2019-07-24 18:23:00.046875,4.19
2019-07-24 18:23:00.062500,-4.94
2019-07-24 18:23:00.078125,-11.25
2019-07-24 18:23:00.093750,-11.26
2019-07-24 18:23:00.109375,-4.9
2019-07-24 18:23:00.125000,4.47
2019-07-24 18:23:00.140625,11.81
2019-07-24 18:23:00.156250,13.38
2019-07-24 18:23:00.171875,8.74
2019-07-24 18:23:00.187500,0.99
2019-07-24 18:23:00.203125,-5.24
2019-07-24 18:23:00.218750,-6.59
2019-07-24 18:23:00.234375,-2.94
2019-07-24 18:23:00.250000,2.6
2019-07-24 18:23:00.265625,5.83
2019-07-24 18:23:00.281250,4.02
2019-07-24 18:23:00.296875,-2.19
2019-07-24 18:23:00.312500,-9.17
2019-07-24 18:23:00.328125,-12.54
2019-07-24 18:23:00.343750,-9.78
2019-07-24 18:23:00.359375,-1.92
2019-07-24 18:23:00.375000,7.01
2019-07-24 18:23:00.390625,12.13
2019-07-24 18:23:00.406250,10.86
2019-07-24 18:23:00.421875,4.08
2019-07-24 18:23:00.437500,-3.97
2019-07-24 18:23:00.453125,-8.37
2019-07-24 18:23:00.468750,-6.24
2019-07-24 18:23:00.484375,1.45
2019-07-24 18:23:00.500000,10.54
2019-07-24 18:23:00.515625,15.95
2019-07-24 18:23:00.531250,14.69
2019-07-24 18:23:00.546875,7.57
2019-07-24 18:23:00.562500,-1.33
2019-07-24 18:23:00.578125,-6.84
2019-07-24 18:23:00.593750,-5.99
2019-07-24 18:23:00.609375,0.5
2019-07-24 18:23:00.625000,8.47
2019-07-24 18:23:00.640625,13.08
2019-07-24 18:23:00.656250,11.41
2019-07-24 18:23:00.671875,4.43
2019-07-24 18:23:00.687500,-3.72
2019-07-24 18:23:00.703125,-8.22
2019-07-24 18:23:00.718750,-6.44
2019-07-24 18:23:00.734375,0.26
2019-07-24 18:23:00.750000,7.56
2019-07-24 18:23:00.765625,10.46
2019-07-24 18:23:00.781250,6.67
2019-07-24 18:23:00.796875,-2.36
2019-07-24 18:23:00.812500,-11.81
2019-07-24 18:23:00.828125,-16.62
2019-07-24 18:23:00.843750,-14.18
2019-07-24 18:23:00.859375,-6.02
2019-07-24 18:23:00.875000,3.32
2019-07-24 18:23:00.890625,8.71
2019-07-24 18:23:00.906250,7.53
2019-07-24 18:23:00.921875,0.92
2019-07-24 18:23:00.937500,-6.94
2019-07-24 18:23:00.953125,-11.28
2019-07-24 18:23:00.968750,-9.68
2019-07-24 18:23:00.984375,-3.24
2019-07-24 18:23:01.000000,3.96
2019-07-24 18:23:01.015625,7.39
2019-07-24 18:23:01.031250,4.77
2019-07-24 18:23:01.046875,-2.71
2019-07-24 18:23:01.062500,-10.98
2019-07-24 18:23:01.078125,-15.45
2019-07-24 18:23:01.093750,-13.72
2019-07-24 18:23:01.109375,-6.78
2019-07-24 18:23:01.125000,1.4
2019-07-24 18:23:01.140625,6.33
2019-07-24 18:23:01.156250,5.44
2019-07-24 18:23:01.171875,-0.35
2019-07-24 18:23:01.187500,-7.29
2019-07-24 18:23:01.203125,-11.06
2019-07-24 18:23:01.218750,-9.42
2019-07-24 18:23:01.234375,-3.54
2019-07-24 18:23:01.250000,2.79
2019-07-24 18:23:01.265625,5.34
2019-07-24 18:23:01.281250,2.33
2019-07-24 18:23:01.296875,-4.7
2019-07-24 18:23:01.312500,-11.36
2019-07-24 18:23:01.328125,-13.37
2019-07-24 18:23:01.343750,-8.82
2019-07-24 18:23:01.359375,0.4
2019-07-24 18:23:01.375000,9.6
2019-07-24 18:23:01.390625,14.03
2019-07-24 18:23:01.406250,11.33
2019-07-24 18:23:01.421875,3.03
2019-07-24 18:23:01.437500,-6.52
2019-07-24 18:23:01.453125,-12.36
2019-07-24 18:23:01.468750,-11.8
2019-07-24 18:23:01.484375,-5.53
2019-07-24 18:23:01.500000,2.71
2019-07-24 18:23:01.515625,8.5
2019-07-24 18:23:01.531250,9.27
2019-07-24 18:23:01.546875,5.62
2019-07-24 18:23:01.562500,0.91
2019-07-24 18:23:01.578125,-1.02
2019-07-24 18:23:01.593750,1.66
2019-07-24 18:23:01.609375,7.51
2019-07-24 18:23:01.625000,12.76
2019-07-24 18:23:01.640625,13.55
2019-07-24 18:23:01.656250,8.7
2019-07-24 18:23:01.671875,0.47
2019-07-24 18:23:01.687500,-6.4
2019-07-24 18:23:01.703125,-7.73
2019-07-24 18:23:01.718750,-2.41
2019-07-24 18:23:01.734375,6.84
2019-07-24 18:23:01.750000,14.91
2019-07-24 18:23:01.765625,17.29
2019-07-24 18:23:01.781250,12.66
2019-07-24 18:23:01.796875,3.45
2019-07-24 18:23:01.812500,-5.49
2019-07-24 18:23:01.828125,-9.93
2019-07-24 18:23:01.843750,-8.35
2019-07-24 18:23:01.859375,-2.84
2019-07-24 18:23:01.875000,2.58
2019-07-24 18:23:01.890625,4.16
2019-07-24 18:23:01.906250,0.83
2019-07-24 18:23:01.921875,-5.32
2019-07-24 18:23:01.937500,-10.33
2019-07-24 18:23:01.953125,-10.69
2019-07-24 18:23:01.968750,-5.47
2019-07-24 18:23:01.984375,2.93
2019-07-24 18:23:02.000000,10.1
2019-07-24 18:23:02.015625,12.19
2019-07-24 18:23:02.031250,8.01
2019-07-24 18:23:02.046875,-0.15
2019-07-24 18:23:02.062500,-7.8
2019-07-24 18:23:02.078125,-10.83
2019-07-24 18:23:02.093750,-7.94
2019-07-24 18:23:02.109375,-1.19
2019-07-24 18:23:02.125000,5.19
2019-07-24 18:23:02.140625,7.32
2019-07-24 18:23:02.156250,4.1
2019-07-24 18:23:02.171875,-2.33
2019-07-24 18:23:02.187500,-7.62
2019-07-24 18:23:02.203125,-8.1
2019-07-24 18:23:02.218750,-2.84
2019-07-24 18:23:02.234375,5.52
2019-07-24 18:23:02.250000,12.3
2019-07-24 18:23:02.265625,13.39
2019-07-24 18:23:02.281250,7.71
2019-07-24 18:23:02.296875,-2.0
2019-07-24 18:23:02.312500,-10.84
2019-07-24 18:23:02.328125,-14.24
2019-07-24 18:23:02.343750,-10.69
2019-07-24 18:23:02.359375,-2.51
2019-07-24 18:23:02.375000,5.44
2019-07-24 18:23:02.390625,8.67
2019-07-24 18:23:02.406250,5.46
2019-07-24 18:23:02.421875,-2.0
2019-07-24 18:23:02.437500,-9.1
2019-07-24 18:23:02.453125,-11.47
2019-07-24 18:23:02.468750,-7.53
2019-07-24 18:23:02.484375,0.61
2019-07-24 18:23:02.500000,8.4
2019-07-24 18:23:02.515625,11.67
2019-07-24 18:23:02.531250,8.84
2019-07-24 18:23:02.546875,2.1
2019-07-24 18:23:02.562500,-4.24
2019-07-24 18:23:02.578125,-6.1
2019-07-24 18:23:02.593750,-2.26
2019-07-24 18:23:02.609375,5.13
2019-07-24 18:23:02.625000,11.58
2019-07-24 18:23:02.640625,13.28
2019-07-24 18:23:02.656250,9.17
2019-07-24 18:23:02.671875,1.71
2019-07-24 18:23:02.687500,-4.61
2019-07-24 18:23:02.703125,-6.08
2019-07-24 18:23:02.718750,-1.93
2019-07-24 18:23:02.734375,5.1
2019-07-24 18:23:02.750000,10.48
2019-07-24 18:23:02.765625,10.39
2019-07-24 18:23:02.781250,4.19
2019-07-24 18:23:02.796875,-5.2
2019-07-24 18:23:02.812500,-12.92
2019-07-24 18:23:02.828125,-14.96
2019-07-24 18:23:02.843750,-10.44
2019-07-24 18:23:02.859375,-2.11
2019-07-24 18:23:02.875000,5.08
2019-07-24 18:23:02.890625,7.05
2019-07-24 18:23:02.906250,2.69
2019-07-24 18:23:02.921875,-5.26
2019-07-24 18:23:02.937500,-12.11
2019-07-24 18:23:02.953125,-13.73
2019-07-24 18:23:02.968750,-9.23
2019-07-24 18:23:02.984375,-1.32
2019-07-24 18:23:03.000000,5.22
2019-07-24 18:23:03.015625,6.52
2019-07-24 18:23:03.031250,1.91
2019-07-24 18:23:03.046875,-5.53
2019-07-24 18:23:03.062500,-11.03
2019-07-24 18:23:03.078125,-10.89
2019-07-24 18:23:03.093750,-4.89
2019-07-24 18:23:03.109375,3.79
2019-07-24 18:23:03.125000,10.21
2019-07-24 18:23:03.140625,11.02
2019-07-24 18:23:03.156250,6.17
2019-07-24 18:23:03.171875,-0.89
2019-07-24 18:23:03.187500,-5.37
2019-07-24 18:23:03.203125,-3.85
2019-07-24 18:23:03.218750,3.5
2019-07-24 18:23:03.234375,12.99
2019-07-24 18:23:03.250000,19.56
2019-07-24 18:23:03.265625,19.41
2019-07-24 18:23:03.281250,12.53
2019-07-24 18:23:03.296875,2.27
2019-07-24 18:23:03.312500,-6.13
2019-07-24 18:23:03.328125,-9.0
2019-07-24 18:23:03.343750,-5.65
2019-07-24 18:23:03.359375,0.87
2019-07-24 18:23:03.375000,6.11
2019-07-24 18:23:03.390625,6.63
2019-07-24 18:23:03.406250,2.2
2019-07-24 18:23:03.421875,-4.34
2019-07-24 18:23:03.437500,-8.87
2019-07-24 18:23:03.453125,-8.51
2019-07-24 18:23:03.468750,-3.45
2019-07-24 18:23:03.484375,3.34
2019-07-24 18:23:03.500000,7.93
2019-07-24 18:23:03.515625,7.77
2019-07-24 18:23:03.531250,3.24
2019-07-24 18:23:03.546875,-2.89
2019-07-24 18:23:03.562500,-6.97
2019-07-24 18:23:03.578125,-6.75
2019-07-24 18:23:03.593750,-2.45
2019-07-24 18:23:03.609375,3.26
2019-07-24 18:23:03.625000,7.04
2019-07-24 18:23:03.640625,6.49
2019-07-24 18:23:03.656250,1.8
2019-07-24 18:23:03.671875,-4.45
2019-07-24 18:23:03.687500,-8.66
2019-07-24 18:23:03.703125,-8.28
2019-07-24 18:23:03.718750,-3.3
2019-07-24 18:23:03.734375,3.59
2019-07-24 18:23:03.750000,8.42
2019-07-24 18:23:03.765625,8.21
2019-07-24 18:23:03.781250,2.74
2019-07-24 18:23:03.796875,-5.12
2019-07-24 18:23:03.812500,-10.97
2019-07-24 18:23:03.828125,-11.5
2019-07-24 18:23:03.843750,-6.48
2019-07-24 18:23:03.859375,1.06
2019-07-24 18:23:03.875000,6.54
2019-07-24 18:23:03.890625,6.54
2019-07-24 18:23:03.906250,1.03
2019-07-24 18:23:03.921875,-6.8
2019-07-24 18:23:03.937500,-12.29
2019-07-24 18:23:03.953125,-12.16
2019-07-24 18:23:03.968750,-6.36
2019-07-24 18:23:03.984375,1.81
2019-07-24 18:23:04.000000,7.87
2019-07-24 18:23:04.015625,8.63
2019-07-24 18:23:04.031250,4.25
2019-07-24 18:23:04.046875,-2.21
2019-07-24 18:23:04.062500,-6.43
2019-07-24 18:23:04.078125,-5.68
2019-07-24 18:23:04.093750,-0.38
2019-07-24 18:23:04.109375,6.07
2019-07-24 18:23:04.125000,9.55
2019-07-24 18:23:04.140625,7.57
2019-07-24 18:23:04.156250,0.92
2019-07-24 18:23:04.171875,-6.62
2019-07-24 18:23:04.187500,-10.64
2019-07-24 18:23:04.203125,-8.51
2019-07-24 18:23:04.218750,-1.04
2019-07-24 18:23:04.234375,7.96
2019-07-24 18:23:04.250000,13.7
2019-07-24 18:23:04.265625,13.3
2019-07-24 18:23:04.281250,7.12
2019-07-24 18:23:04.296875,-1.32
2019-07-24 18:23:04.312500,-7.54
2019-07-24 18:23:04.328125,-8.71
2019-07-24 18:23:04.343750,-5.32
2019-07-24 18:23:04.359375,-0.69
2019-07-24 18:23:04.375000,1.21
2019-07-24 18:23:04.390625,-1.77
2019-07-24 18:23:04.406250,-8.28
2019-07-24 18:23:04.421875,-14.21
2019-07-24 18:23:04.437500,-15.08
2019-07-24 18:23:04.453125,-8.9
2019-07-24 18:23:04.468750,2.43
2019-07-24 18:23:04.484375,13.8
2019-07-24 18:23:04.500000,19.74
2019-07-24 18:23:04.515625,17.56
2019-07-24 18:23:04.531250,8.67
2019-07-24 18:23:04.546875,-2.02
2019-07-24 18:23:04.562500,-9.16
2019-07-24 18:23:04.578125,-9.67
2019-07-24 18:23:04.593750,-4.4
2019-07-24 18:23:04.609375,2.74
2019-07-24 18:23:04.625000,7.14
2019-07-24 18:23:04.640625,6.37
2019-07-24 18:23:04.656250,1.18
2019-07-24 18:23:04.671875,-4.77
2019-07-24 18:23:04.687500,-7.53
2019-07-24 18:23:04.703125,-5.05
2019-07-24 18:23:04.718750,1.42
2019-07-24 18:23:04.734375,8.01
2019-07-24 18:23:04.750000,10.52
2019-07-24 18:23:04.765625,6.93
2019-07-24 18:23:04.781250,-1.36
2019-07-24 18:23:04.796875,-10.16
2019-07-24 18:23:04.812500,-14.73
2019-07-24 18:23:04.828125,-12.65
2019-07-24 18:23:04.843750,-5.09
2019-07-24 18:23:04.859375,3.7
2019-07-24 18:23:04.875000,9.1
2019-07-24 18:23:04.890625,8.57
2019-07-24 18:23:04.906250,3.37
2019-07-24 18:23:04.921875,-2.48
2019-07-24 18:23:04.937500,-4.64
2019-07-24 18:23:04.953125,-1.32
2019-07-24 18:23:04.968750,5.74
2019-07-24 18:23:04.984375,12.29
2019-07-24 18:23:05.000000,14.19
2019-07-24 18:23:05.015625,10.2
2019-07-24 18:23:05.031250,2.35
2019-07-24 18:23:05.046875,-4.83
2019-07-24 18:23:05.062500,-7.3
2019-07-24 18:23:05.078125,-3.66
2019-07-24 18:23:05.093750,3.86
2019-07-24 18:23:05.109375,10.86
2019-07-24 18:23:05.125000,12.89
2019-07-24 18:23:05.140625,8.33
2019-07-24 18:23:05.156250,-1.08
2019-07-24 18:23:05.171875,-10.91
2019-07-24 18:23:05.187500,-16.62
2019-07-24 18:23:05.203125,-15.92
2019-07-24 18:23:05.218750,-10.06
2019-07-24 18:23:05.234375,-3.0
2019-07-24 18:23:05.250000,0.9
2019-07-24 18:23:05.265625,-0.6
2019-07-24 18:23:05.281250,-6.27
2019-07-24 18:23:05.296875,-12.26
2019-07-24 18:23:05.312500,-14.21
2019-07-24 18:23:05.328125,-10.02
2019-07-24 18:23:05.343750,-0.99
2019-07-24 18:23:05.359375,8.66
2019-07-24 18:23:05.375000,14.45
2019-07-24 18:23:05.390625,13.96
2019-07-24 18:23:05.406250,8.5
2019-07-24 18:23:05.421875,2.15
2019-07-24 18:23:05.437500,-0.59
2019-07-24 18:23:05.453125,2.38
2019-07-24 18:23:05.468750,9.59
2019-07-24 18:23:05.484375,16.74
2019-07-24 18:23:05.500000,19.17
2019-07-24 18:23:05.515625,14.95
2019-07-24 18:23:05.531250,5.74
2019-07-24 18:23:05.546875,-3.78
2019-07-24 18:23:05.562500,-8.98
2019-07-24 18:23:05.578125,-7.7
2019-07-24 18:23:05.593750,-1.97
2019-07-24 18:23:05.609375,3.81
2019-07-24 18:23:05.625000,5.09
2019-07-24 18:23:05.640625,0.41
2019-07-24 18:23:05.656250,-7.8
2019-07-24 18:23:05.671875,-14.59
2019-07-24 18:23:05.687500,-15.52
2019-07-24 18:23:05.703125,-9.4
2019-07-24 18:23:05.718750,0.99
2019-07-24 18:23:05.734375,10.23
2019-07-24 18:23:05.750000,13.67
2019-07-24 18:23:05.765625,9.74
2019-07-24 18:23:05.781250,0.96
2019-07-24 18:23:05.796875,-7.66
2019-07-24 18:23:05.812500,-11.39
2019-07-24 18:23:05.828125,-8.62
2019-07-24 18:23:05.843750,-1.53
2019-07-24 18:23:05.859375,5.31
2019-07-24 18:23:05.875000,7.54
2019-07-24 18:23:05.890625,3.78
2019-07-24 18:23:05.906250,-3.74
2019-07-24 18:23:05.921875,-10.4
2019-07-24 18:23:05.937500,-11.98
2019-07-24 18:23:05.953125,-7.14
2019-07-24 18:23:05.968750,1.61
2019-07-24 18:23:05.984375,9.51
2019-07-24 18:23:06.000000,12.13
2019-07-24 18:23:06.015625,8.08
2019-07-24 18:23:06.031250,-0.18
2019-07-24 18:23:06.046875,-7.85
2019-07-24 18:23:06.062500,-10.55
2019-07-24 18:23:06.078125,-6.7
2019-07-24 18:23:06.093750,1.4
2019-07-24 18:23:06.109375,9.13
2019-07-24 18:23:06.125000,12.27
2019-07-24 18:23:06.140625,9.37
2019-07-24 18:23:06.156250,2.67
2019-07-24 18:23:06.171875,-3.41
2019-07-24 18:23:06.187500,-4.9
2019-07-24 18:23:06.203125,-0.64
2019-07-24 18:23:06.218750,7.05
2019-07-24 18:23:06.234375,13.51
2019-07-24 18:23:06.250000,14.6
2019-07-24 18:23:06.265625,9.08
2019-07-24 18:23:06.281250,-0.66
2019-07-24 18:23:06.296875,-9.63
2019-07-24 18:23:06.312500,-13.2
2019-07-24 18:23:06.328125,-9.59
2019-07-24 18:23:06.343750,-1.03
2019-07-24 18:23:06.359375,7.74
2019-07-24 18:23:06.375000,11.73
2019-07-24 18:23:06.390625,8.97
2019-07-24 18:23:06.406250,1.24
2019-07-24 18:23:06.421875,-6.88
2019-07-24 18:23:06.437500,-10.9
2019-07-24 18:23:06.453125,-8.93
2019-07-24 18:23:06.468750,-3.02
2019-07-24 18:23:06.484375,2.42
2019-07-24 18:23:06.500000,3.18
2019-07-24 18:23:06.515625,-2.06
2019-07-24 18:23:06.531250,-10.62
2019-07-24 18:23:06.546875,-17.59
2019-07-24 18:23:06.562500,-18.62
2019-07-24 18:23:06.578125,-12.66
2019-07-24 18:23:06.593750,-2.5
2019-07-24 18:23:06.609375,6.52
2019-07-24 18:23:06.625000,9.95
2019-07-24 18:23:06.640625,6.47
2019-07-24 18:23:06.656250,-1.16
2019-07-24 18:23:06.671875,-7.95
2019-07-24 18:23:06.687500,-9.64
2019-07-24 18:23:06.703125,-5.11
2019-07-24 18:23:06.718750,2.92
2019-07-24 18:23:06.734375,9.64
2019-07-24 18:23:06.750000,11.01
2019-07-24 18:23:06.765625,6.21
2019-07-24 18:23:06.781250,-2.04
2019-07-24 18:23:06.796875,-8.84
2019-07-24 18:23:06.812500,-10.27
2019-07-24 18:23:06.828125,-5.49
2019-07-24 18:23:06.843750,2.56
2019-07-24 18:23:06.859375,9.18
2019-07-24 18:23:06.875000,10.57
2019-07-24 18:23:06.890625,6.22
2019-07-24 18:23:06.906250,-0.87
2019-07-24 18:23:06.921875,-6.03
2019-07-24 18:23:06.937500,-5.82
2019-07-24 18:23:06.953125,-0.11
2019-07-24 18:23:06.968750,7.56
2019-07-24 18:23:06.984375,12.36
2019-07-24 18:23:07.000000,10.82
2019-07-24 18:23:07.015625,3.21
2019-07-24 18:23:07.031250,-6.53
2019-07-24 18:23:07.046875,-13.15
2019-07-24 18:23:07.062500,-13.01
2019-07-24 18:23:07.078125,-6.27
2019-07-24 18:23:07.093750,3.31
2019-07-24 18:23:07.109375,10.34
2019-07-24 18:23:07.125000,11.32
2019-07-24 18:23:07.140625,6.0
2019-07-24 18:23:07.156250,-2.11
2019-07-24 18:23:07.171875,-8.21
2019-07-24 18:23:07.187500,-8.85
2019-07-24 18:23:07.203125,-4.05
2019-07-24 18:23:07.218750,2.96
2019-07-24 18:23:07.234375,7.6
2019-07-24 18:23:07.250000,6.63
2019-07-24 18:23:07.265625,0.24
2019-07-24 18:23:07.281250,-8.25
2019-07-24 18:23:07.296875,-13.86
2019-07-24 18:23:07.312500,-13.2
2019-07-24 18:23:07.328125,-6.09
2019-07-24 18:23:07.343750,4.0
2019-07-24 18:23:07.359375,11.95
2019-07-24 18:23:07.375000,13.9
2019-07-24 18:23:07.390625,9.33
2019-07-24 18:23:07.406250,1.47
2019-07-24 18:23:07.421875,-4.76
2019-07-24 18:23:07.437500,-5.58
2019-07-24 18:23:07.453125,-0.75
2019-07-24 18:23:07.468750,6.34
2019-07-24 18:23:07.484375,10.79
2019-07-24 18:23:07.500000,9.1
2019-07-24 18:23:07.515625,1.55
2019-07-24 18:23:07.531250,-7.95
2019-07-24 18:23:07.546875,-14.03
2019-07-24 18:23:07.562500,-13.1
2019-07-24 18:23:07.578125,-5.34
2019-07-24 18:23:07.593750,5.27
2019-07-24 18:23:07.609375,13.16
2019-07-24 18:23:07.625000,14.54
2019-07-24 18:23:07.640625,9.22
2019-07-24 18:23:07.656250,0.72
2019-07-24 18:23:07.671875,-5.93
2019-07-24 18:23:07.687500,-7.12
2019-07-24 18:23:07.703125,-2.77
2019-07-24 18:23:07.718750,3.86
2019-07-24 18:23:07.734375,8.24
2019-07-24 18:23:07.750000,7.25
2019-07-24 18:23:07.765625,1.34
2019-07-24 18:23:07.781250,-6.06
2019-07-24 18:23:07.796875,-10.17
2019-07-24 18:23:07.812500,-8.06
2019-07-24 18:23:07.828125,-0.08
2019-07-24 18:23:07.843750,9.92
2019-07-24 18:23:07.859375,16.93
2019-07-24 18:23:07.875000,17.48
2019-07-24 18:23:07.890625,11.51
2019-07-24 18:23:07.906250,2.42
2019-07-24 18:23:07.921875,-4.97
2019-07-24 18:23:07.937500,-7.07
2019-07-24 18:23:07.953125,-3.63
2019-07-24 18:23:07.968750,2.37
2019-07-24 18:23:07.984375,6.41
2019-07-24 18:23:08.000000,5.26
2019-07-24 18:23:08.015625,-1.02
2019-07-24 18:23:08.031250,-9.18
2019-07-24 18:23:08.046875,-14.51
2019-07-24 18:23:08.062500,-14.0
2019-07-24 18:23:08.078125,-7.97
2019-07-24 18:23:08.093750,-0.11
2019-07-24 18:23:08.109375,4.71
2019-07-24 18:23:08.125000,3.4
2019-07-24 18:23:08.140625,-3.37
2019-07-24 18:23:08.156250,-11.57
2019-07-24 18:23:08.171875,-16.15
2019-07-24 18:23:08.187500,-14.07
2019-07-24 18:23:08.203125,-6.08
2019-07-24 18:23:08.218750,3.58
2019-07-24 18:23:08.234375,9.87
2019-07-24 18:23:08.250000,9.6
2019-07-24 18:23:08.265625,3.53
2019-07-24 18:23:08.281250,-4.47
2019-07-24 18:23:08.296875,-9.47
2019-07-24 18:23:08.312500,-8.6
2019-07-24 18:23:08.328125,-2.36
2019-07-24 18:23:08.343750,5.39
2019-07-24 18:23:08.359375,10.08
2019-07-24 18:23:08.375000,8.89
2019-07-24 18:23:08.390625,2.54
2019-07-24 18:23:08.406250,-5.3
2019-07-24 18:23:08.421875,-10.09
2019-07-24 18:23:08.437500,-9.08
2019-07-24 18:23:08.453125,-2.95
2019-07-24 18:23:08.468750,4.72
2019-07-24 18:23:08.484375,9.44
2019-07-24 18:23:08.500000,8.65
2019-07-24 18:23:08.515625,2.99
2019-07-24 18:23:08.531250,-3.79
2019-07-24 18:23:08.546875,-7.32
2019-07-24 18:23:08.562500,-5.0
2019-07-24 18:23:08.578125,2.18
2019-07-24 18:23:08.593750,10.45
2019-07-24 18:23:08.609375,15.33
2019-07-24 18:23:08.625000,14.26
2019-07-24 18:23:08.640625,8.21
2019-07-24 18:23:08.656250,0.93
2019-07-24 18:23:08.671875,-3.06
2019-07-24 18:23:08.687500,-1.4
2019-07-24 18:23:08.703125,5.04
2019-07-24 18:23:08.718750,12.26
2019-07-24 18:23:08.734375,15.85
2019-07-24 18:23:08.750000,13.2
2019-07-24 18:23:08.765625,5.32
2019-07-24 18:23:08.781250,-3.95
2019-07-24 18:23:08.796875,-9.97
2019-07-24 18:23:08.812500,-10.12
2019-07-24 18:23:08.828125,-5.03
2019-07-24 18:23:08.843750,1.71
2019-07-24 18:23:08.859375,5.85
2019-07-24 18:23:08.875000,4.93
2019-07-24 18:23:08.890625,-0.48
2019-07-24 18:23:08.906250,-7.06
2019-07-24 18:23:08.921875,-10.97
2019-07-24 18:23:08.937500,-9.99
2019-07-24 18:23:08.953125,-4.87
2019-07-24 18:23:08.968750,1.31
2019-07-24 18:23:08.984375,4.96
2019-07-24 18:23:09.000000,4.22
2019-07-24 18:23:09.015625,-0.1
2019-07-24 18:23:09.031250,-4.97
2019-07-24 18:23:09.046875,-6.94
2019-07-24 18:23:09.062500,-4.28
2019-07-24 18:23:09.078125,2.01
2019-07-24 18:23:09.093750,8.6
2019-07-24 18:23:09.109375,11.8
2019-07-24 18:23:09.125000,9.54
2019-07-24 18:23:09.140625,2.73
2019-07-24 18:23:09.156250,-5.23
2019-07-24 18:23:09.171875,-10.36
2019-07-24 18:23:09.187500,-10.29
2019-07-24 18:23:09.203125,-5.49
2019-07-24 18:23:09.218750,0.77
2019-07-24 18:23:09.234375,4.59
2019-07-24 18:23:09.250000,3.55
2019-07-24 18:23:09.265625,-1.95
2019-07-24 18:23:09.281250,-8.91
2019-07-24 18:23:09.296875,-13.51
2019-07-24 18:23:09.312500,-13.54
2019-07-24 18:23:09.328125,-9.36
2019-07-24 18:23:09.343750,-3.82
2019-07-24 18:23:09.359375,-0.57
2019-07-24 18:23:09.375000,-1.76
2019-07-24 18:23:09.390625,-6.92
2019-07-24 18:23:09.406250,-13.15
2019-07-24 18:23:09.421875,-16.79
2019-07-24 18:23:09.437500,-15.6
2019-07-24 18:23:09.453125,-10.14
2019-07-24 18:23:09.468750,-3.46
2019-07-24 18:23:09.484375,0.66
2019-07-24 18:23:09.500000,-0.29
2019-07-24 18:23:09.515625,-5.91
2019-07-24 18:23:09.531250,-13.26
2019-07-24 18:23:09.546875,-18.67
2019-07-24 18:23:09.562500,-19.93
2019-07-24 18:23:09.578125,-17.44
2019-07-24 18:23:09.593750,-13.9
2019-07-24 18:23:09.609375,-12.35
2019-07-24 18:23:09.625000,-14.37
2019-07-24 18:23:09.640625,-19.42
2019-07-24 18:23:09.656250,-25.14
2019-07-24 18:23:09.671875,-29.15
2019-07-24 18:23:09.687500,-30.71
2019-07-24 18:23:09.703125,-30.99
2019-07-24 18:23:09.718750,-32.32
2019-07-24 18:23:09.734375,-36.4
2019-07-24 18:23:09.750000,-42.8
2019-07-24 18:23:09.765625,-49.3
2019-07-24 18:23:09.781250,-53.47
2019-07-24 18:23:09.796875,-53.78
2019-07-24 18:23:09.812500,-51.16
