2019-08-16 10:44:39.000000,-0.0
2019-08-16 10:44:39.015625,-0.0
2019-08-16 10:44:39.031250,-0.0
2019-08-16 10:44:39.046875,-0.0
2019-08-16 10:44:39.062500,-0.0
2019-08-16 10:44:39.078125,-0.0
2019-08-16 10:44:39.093750,-0.0
2019-08-16 10:44:39.109375,-0.0
2019-08-16 10:44:39.125000,-0.0
2019-08-16 10:44:39.140625,-0.0
2019-08-16 10:44:39.156250,0.0
2019-08-16 10:44:39.171875,0.01
2019-08-16 10:44:39.187500,0.01
2019-08-16 10:44:39.203125,-0.0
2019-08-16 10:44:39.218750,-0.03
2019-08-16 10:44:39.234375,-0.05
2019-08-16 10:44:39.250000,-0.05
2019-08-16 10:44:39.265625,0.0
2019-08-16 10:44:39.281250,0.13
2019-08-16 10:44:39.296875,0.36
2019-08-16 10:44:39.312500,0.66
2019-08-16 10:44:39.328125,1.01
2019-08-16 10:44:39.343750,1.37
2019-08-16 10:44:39.359375,1.72
2019-08-16 10:44:39.375000,2.06
2019-08-16 10:44:39.390625,2.4
2019-08-16 10:44:39.406250,2.79
2019-08-16 10:44:39.421875,3.24
2019-08-16 10:44:39.437500,3.8
2019-08-16 10:44:39.453125,4.42
2019-08-16 10:44:39.468750,5.06
2019-08-16 10:44:39.484375,5.66
2019-08-16 10:44:39.500000,6.2
2019-08-16 10:44:39.515625,6.68
2019-08-16 10:44:39.531250,7.15
2019-08-16 10:44:39.546875,7.68
2019-08-16 10:44:39.562500,8.31
2019-08-16 10:44:39.578125,9.14
2019-08-16 10:44:39.593750,10.09
2019-08-16 10:44:39.609375,11.04
2019-08-16 10:44:39.625000,11.88
2019-08-16 10:44:39.640625,12.56
2019-08-16 10:44:39.656250,13.14
2019-08-16 10:44:39.671875,13.76
2019-08-16 10:44:39.687500,14.65
2019-08-16 10:44:39.703125,15.96
2019-08-16 10:44:39.718750,17.91
2019-08-16 10:44:39.734375,20.32
2019-08-16 10:44:39.750000,22.9
2019-08-16 10:44:39.765625,25.38
2019-08-16 10:44:39.781250,27.58
2019-08-16 10:44:39.796875,29.57
2019-08-16 10:44:39.812500,31.68
2019-08-16 10:44:39.828125,34.32
2019-08-16 10:44:39.843750,37.81
2019-08-16 10:44:39.859375,42.54
2019-08-16 10:44:39.875000,48.15
2019-08-16 10:44:39.890625,54.1
2019-08-16 10:44:39.906250,59.83
2019-08-16 10:44:39.921875,64.97
2019-08-16 10:44:39.937500,69.58
2019-08-16 10:44:39.953125,74.14
2019-08-16 10:44:39.968750,79.34
2019-08-16 10:44:39.984375,85.71
2019-08-16 10:44:40.000000,93.76
2019-08-16 10:44:40.015625,103.0
2019-08-16 10:44:40.031250,112.62
2019-08-16 10:44:40.046875,121.73
2019-08-16 10:44:40.062500,129.77
2019-08-16 10:44:40.078125,136.75
2019-08-16 10:44:40.093750,143.3
2019-08-16 10:44:40.109375,150.75
2019-08-16 10:44:40.125000,157.77
2019-08-16 10:44:40.140625,166.64
2019-08-16 10:44:40.156250,177.95
2019-08-16 10:44:40.171875,191.79
2019-08-16 10:44:40.187500,206.97
2019-08-16 10:44:40.203125,220.57
2019-08-16 10:44:40.218750,228.25
2019-08-16 10:44:40.234375,225.36
2019-08-16 10:44:40.250000,208.53
2019-08-16 10:44:40.265625,176.87
2019-08-16 10:44:40.281250,132.76
2019-08-16 10:44:40.296875,80.05
2019-08-16 10:44:40.312500,23.07
2019-08-16 10:44:40.328125,-34.95
2019-08-16 10:44:40.343750,-92.44
2019-08-16 10:44:40.359375,-149.15
2019-08-16 10:44:40.375000,-205.22
2019-08-16 10:44:40.390625,-260.35
2019-08-16 10:44:40.406250,-313.71
2019-08-16 10:44:40.421875,-363.82
2019-08-16 10:44:40.437500,-409.75
2019-08-16 10:44:40.453125,-450.79
2019-08-16 10:44:40.468750,-486.35
2019-08-16 10:44:40.484375,-515.54
2019-08-16 10:44:40.500000,-536.98
2019-08-16 10:44:40.515625,-548.91
2019-08-16 10:44:40.531250,-549.59
2019-08-16 10:44:40.546875,-537.94
2019-08-16 10:44:40.562500,-513.71
2019-08-16 10:44:40.578125,-478.11
2019-08-16 10:44:40.593750,-433.24
2019-08-16 10:44:40.609375,-381.74
2019-08-16 10:44:40.625000,-326.24
2019-08-16 10:44:40.640625,-268.98
2019-08-16 10:44:40.656250,-211.69
2019-08-16 10:44:40.671875,-155.63
2019-08-16 10:44:40.687500,-101.83
2019-08-16 10:44:40.703125,-51.15
2019-08-16 10:44:40.718750,-4.57
2019-08-16 10:44:40.734375,37.04
2019-08-16 10:44:40.750000,73.02
2019-08-16 10:44:40.765625,103.09
2019-08-16 10:44:40.781250,127.4
2019-08-16 10:44:40.796875,146.47
2019-08-16 10:44:40.812500,160.99
2019-08-16 10:44:40.828125,171.68
2019-08-16 10:44:40.843750,179.16
2019-08-16 10:44:40.859375,183.83
2019-08-16 10:44:40.875000,185.97
2019-08-16 10:44:40.890625,185.82
2019-08-16 10:44:40.906250,183.65
2019-08-16 10:44:40.921875,179.81
2019-08-16 10:44:40.937500,174.7
2019-08-16 10:44:40.953125,168.75
2019-08-16 10:44:40.968750,162.29
2019-08-16 10:44:40.984375,155.57
2019-08-16 10:44:41.000000,148.74
2019-08-16 10:44:41.015625,141.86
2019-08-16 10:44:41.031250,134.97
2019-08-16 10:44:41.046875,128.13
2019-08-16 10:44:41.062500,121.39
2019-08-16 10:44:41.078125,114.82
2019-08-16 10:44:41.093750,108.5
2019-08-16 10:44:41.109375,102.48
2019-08-16 10:44:41.125000,96.79
2019-08-16 10:44:41.140625,91.45
2019-08-16 10:44:41.156250,86.46
2019-08-16 10:44:41.171875,81.83
2019-08-16 10:44:41.187500,77.57
2019-08-16 10:44:41.203125,73.71
2019-08-16 10:44:41.218750,70.26
2019-08-16 10:44:41.234375,67.23
2019-08-16 10:44:41.250000,64.59
2019-08-16 10:44:41.265625,62.34
2019-08-16 10:44:41.281250,60.4
2019-08-16 10:44:41.296875,58.7
2019-08-16 10:44:41.312500,57.12
2019-08-16 10:44:41.328125,55.51
2019-08-16 10:44:41.343750,53.69
2019-08-16 10:44:41.359375,51.49
2019-08-16 10:44:41.375000,48.72
2019-08-16 10:44:41.390625,45.26
2019-08-16 10:44:41.406250,41.0
2019-08-16 10:44:41.421875,35.93
2019-08-16 10:44:41.437500,30.12
2019-08-16 10:44:41.453125,23.65
2019-08-16 10:44:41.468750,16.71
2019-08-16 10:44:41.484375,9.58
2019-08-16 10:44:41.500000,2.51
2019-08-16 10:44:41.515625,-4.2
2019-08-16 10:44:41.531250,-10.3
2019-08-16 10:44:41.546875,-15.58
2019-08-16 10:44:41.562500,-19.88
2019-08-16 10:44:41.578125,-23.12
2019-08-16 10:44:41.593750,-25.29
2019-08-16 10:44:41.609375,-26.44
2019-08-16 10:44:41.625000,-26.69
2019-08-16 10:44:41.640625,-26.16
2019-08-16 10:44:41.656250,-25.01
2019-08-16 10:44:41.671875,-23.38
2019-08-16 10:44:41.687500,-21.42
2019-08-16 10:44:41.703125,-19.23
2019-08-16 10:44:41.718750,-16.89
2019-08-16 10:44:41.734375,-14.45
2019-08-16 10:44:41.750000,-11.95
2019-08-16 10:44:41.765625,-9.44
2019-08-16 10:44:41.781250,-6.92
2019-08-16 10:44:41.796875,-4.42
2019-08-16 10:44:41.812500,-1.94
2019-08-16 10:44:41.828125,0.54
2019-08-16 10:44:41.843750,3.03
2019-08-16 10:44:41.859375,5.55
2019-08-16 10:44:41.875000,8.13
2019-08-16 10:44:41.890625,10.81
2019-08-16 10:44:41.906250,13.58
2019-08-16 10:44:41.921875,16.41
2019-08-16 10:44:41.937500,19.32
2019-08-16 10:44:41.953125,22.3
2019-08-16 10:44:41.968750,25.37
2019-08-16 10:44:41.984375,28.53
2019-08-16 10:44:42.000000,31.8
2019-08-16 10:44:42.015625,35.21
2019-08-16 10:44:42.031250,38.84
2019-08-16 10:44:42.046875,42.6
2019-08-16 10:44:42.062500,46.47
2019-08-16 10:44:42.078125,50.44
2019-08-16 10:44:42.093750,54.54
2019-08-16 10:44:42.109375,58.78
2019-08-16 10:44:42.125000,63.2
2019-08-16 10:44:42.140625,67.84
2019-08-16 10:44:42.156250,72.75
2019-08-16 10:44:42.171875,78.02
2019-08-16 10:44:42.187500,83.49
2019-08-16 10:44:42.203125,89.05
2019-08-16 10:44:42.218750,94.66
2019-08-16 10:44:42.234375,100.27
2019-08-16 10:44:42.250000,105.85
2019-08-16 10:44:42.265625,111.39
2019-08-16 10:44:42.281250,116.91
2019-08-16 10:44:42.296875,122.45
2019-08-16 10:44:42.312500,128.05
2019-08-16 10:44:42.328125,133.46
2019-08-16 10:44:42.343750,138.49
2019-08-16 10:44:42.359375,142.91
2019-08-16 10:44:42.375000,146.51
2019-08-16 10:44:42.390625,149.02
2019-08-16 10:44:42.406250,150.09
2019-08-16 10:44:42.421875,149.25
2019-08-16 10:44:42.437500,145.85
2019-08-16 10:44:42.453125,141.12
2019-08-16 10:44:42.468750,135.53
2019-08-16 10:44:42.484375,129.35
2019-08-16 10:44:42.500000,122.81
2019-08-16 10:44:42.515625,116.02
2019-08-16 10:44:42.531250,109.11
2019-08-16 10:44:42.546875,102.16
2019-08-16 10:44:42.562500,95.28
2019-08-16 10:44:42.578125,88.58
2019-08-16 10:44:42.593750,82.22
2019-08-16 10:44:42.609375,76.08
2019-08-16 10:44:42.625000,70.07
2019-08-16 10:44:42.640625,64.21
2019-08-16 10:44:42.656250,58.52
2019-08-16 10:44:42.671875,53.05
2019-08-16 10:44:42.687500,47.85
2019-08-16 10:44:42.703125,43.01
2019-08-16 10:44:42.718750,38.62
2019-08-16 10:44:42.734375,34.77
2019-08-16 10:44:42.750000,31.35
2019-08-16 10:44:42.765625,28.27
2019-08-16 10:44:42.781250,25.5
2019-08-16 10:44:42.796875,22.98
2019-08-16 10:44:42.812500,20.7
2019-08-16 10:44:42.828125,18.65
2019-08-16 10:44:42.843750,16.83
2019-08-16 10:44:42.859375,15.27
2019-08-16 10:44:42.875000,13.99
2019-08-16 10:44:42.890625,12.88
2019-08-16 10:44:42.906250,11.88
2019-08-16 10:44:42.921875,10.95
2019-08-16 10:44:42.937500,10.06
2019-08-16 10:44:42.953125,9.17
2019-08-16 10:44:42.968750,8.26
2019-08-16 10:44:42.984375,7.28
2019-08-16 10:44:43.000000,6.2
2019-08-16 10:44:43.015625,5.0
2019-08-16 10:44:43.031250,3.62
2019-08-16 10:44:43.046875,2.04
2019-08-16 10:44:43.062500,0.33
2019-08-16 10:44:43.078125,-1.45
2019-08-16 10:44:43.093750,-3.18
2019-08-16 10:44:43.109375,-4.8
2019-08-16 10:44:43.125000,-6.25
2019-08-16 10:44:43.140625,-7.55
2019-08-16 10:44:43.156250,-8.7
2019-08-16 10:44:43.171875,-9.74
2019-08-16 10:44:43.187500,-10.65
2019-08-16 10:44:43.203125,-11.39
2019-08-16 10:44:43.218750,-11.88
2019-08-16 10:44:43.234375,-12.09
2019-08-16 10:44:43.250000,-12.02
2019-08-16 10:44:43.265625,-11.81
2019-08-16 10:44:43.281250,-11.61
2019-08-16 10:44:43.296875,-11.64
2019-08-16 10:44:43.312500,-12.02
2019-08-16 10:44:43.328125,-12.75
2019-08-16 10:44:43.343750,-13.71
2019-08-16 10:44:43.359375,-14.72
2019-08-16 10:44:43.375000,-15.61
2019-08-16 10:44:43.390625,-16.36
2019-08-16 10:44:43.406250,-17.16
2019-08-16 10:44:43.421875,-18.33
2019-08-16 10:44:43.437500,-20.22
2019-08-16 10:44:43.453125,-23.02
2019-08-16 10:44:43.468750,-26.66
2019-08-16 10:44:43.484375,-30.76
2019-08-16 10:44:43.500000,-34.77
2019-08-16 10:44:43.515625,-38.19
2019-08-16 10:44:43.531250,-40.9
2019-08-16 10:44:43.546875,-43.2
2019-08-16 10:44:43.562500,-45.76
2019-08-16 10:44:43.578125,-49.36
2019-08-16 10:44:43.593750,-54.52
2019-08-16 10:44:43.609375,-61.17
2019-08-16 10:44:43.625000,-68.65
2019-08-16 10:44:43.640625,-75.96
2019-08-16 10:44:43.656250,-82.25
2019-08-16 10:44:43.671875,-87.26
2019-08-16 10:44:43.687500,-91.62
2019-08-16 10:44:43.703125,-96.64
2019-08-16 10:44:43.718750,-103.76
2019-08-16 10:44:43.734375,-113.84
2019-08-16 10:44:43.750000,-126.74
2019-08-16 10:44:43.765625,-141.23
2019-08-16 10:44:43.781250,-155.53
2019-08-16 10:44:43.796875,-168.12
2019-08-16 10:44:43.812500,-178.41
2019-08-16 10:44:43.828125,-187.16
2019-08-16 10:44:43.843750,-196.13
2019-08-16 10:44:43.859375,-207.48
2019-08-16 10:44:43.875000,-223.02
2019-08-16 10:44:43.890625,-243.61
2019-08-16 10:44:43.906250,-268.75
2019-08-16 10:44:43.921875,-296.48
2019-08-16 10:44:43.937500,-323.52
2019-08-16 10:44:43.953125,-345.85
2019-08-16 10:44:43.968750,-359.58
2019-08-16 10:44:43.984375,-362.06
2019-08-16 10:44:44.000000,-352.69
2019-08-16 10:44:44.015625,-333.23
2019-08-16 10:44:44.031250,-307.23
2019-08-16 10:44:44.046875,-278.81
2019-08-16 10:44:44.062500,-251.08
2019-08-16 10:44:44.078125,-224.88
2019-08-16 10:44:44.093750,-198.51
2019-08-16 10:44:44.109375,-168.77
2019-08-16 10:44:44.125000,-132.85
2019-08-16 10:44:44.140625,-90.3
2019-08-16 10:44:44.156250,-43.98
2019-08-16 10:44:44.171875,0.65
2019-08-16 10:44:44.187500,37.47
2019-08-16 10:44:44.203125,62.23
2019-08-16 10:44:44.218750,73.99
2019-08-16 10:44:44.234375,75.02
2019-08-16 10:44:44.250000,69.3
2019-08-16 10:44:44.265625,60.19
2019-08-16 10:44:44.281250,48.83
2019-08-16 10:44:44.296875,34.02
2019-08-16 10:44:44.312500,13.62
2019-08-16 10:44:44.328125,-13.41
2019-08-16 10:44:44.343750,-45.6
2019-08-16 10:44:44.359375,-78.96
2019-08-16 10:44:44.375000,-108.1
2019-08-16 10:44:44.390625,-128.25
2019-08-16 10:44:44.406250,-136.83
2019-08-16 10:44:44.421875,-134.2
2019-08-16 10:44:44.437500,-123.11
2019-08-16 10:44:44.453125,-107.3
2019-08-16 10:44:44.468750,-89.99
2019-08-16 10:44:44.484375,-72.82
2019-08-16 10:44:44.500000,-56.13
2019-08-16 10:44:44.515625,-39.97
2019-08-16 10:44:44.531250,-25.1
2019-08-16 10:44:44.546875,-13.53
2019-08-16 10:44:44.562500,-7.71
2019-08-16 10:44:44.578125,-9.04
2019-08-16 10:44:44.593750,-16.68
2019-08-16 10:44:44.609375,-27.38
2019-08-16 10:44:44.625000,-36.61
2019-08-16 10:44:44.640625,-40.58
2019-08-16 10:44:44.656250,-37.75
2019-08-16 10:44:44.671875,-29.46
2019-08-16 10:44:44.687500,-19.19
2019-08-16 10:44:44.703125,-10.67
2019-08-16 10:44:44.718750,-6.01
2019-08-16 10:44:44.734375,-4.83
2019-08-16 10:44:44.750000,-4.64
2019-08-16 10:44:44.765625,-2.23
2019-08-16 10:44:44.781250,4.33
2019-08-16 10:44:44.796875,14.52
2019-08-16 10:44:44.812500,25.37
2019-08-16 10:44:44.828125,32.98
2019-08-16 10:44:44.843750,34.65
2019-08-16 10:44:44.859375,30.39
2019-08-16 10:44:44.875000,22.99
2019-08-16 10:44:44.890625,16.51
2019-08-16 10:44:44.906250,14.05
2019-08-16 10:44:44.921875,16.02
2019-08-16 10:44:44.937500,20.4
2019-08-16 10:44:44.953125,24.34
2019-08-16 10:44:44.968750,26.13
2019-08-16 10:44:44.984375,26.43
2019-08-16 10:44:45.000000,27.5
2019-08-16 10:44:45.015625,31.12
2019-08-16 10:44:45.031250,37.01
2019-08-16 10:44:45.046875,42.47
2019-08-16 10:44:45.062500,43.84
2019-08-16 10:44:45.078125,39.06
2019-08-16 10:44:45.093750,29.24
2019-08-16 10:44:45.109375,18.72
2019-08-16 10:44:45.125000,13.04
2019-08-16 10:44:45.140625,15.88
2019-08-16 10:44:45.156250,27.06
2019-08-16 10:44:45.171875,42.32
2019-08-16 10:44:45.187500,55.43
2019-08-16 10:44:45.203125,61.22
2019-08-16 10:44:45.218750,58.19
2019-08-16 10:44:45.234375,48.93
2019-08-16 10:44:45.250000,38.26
2019-08-16 10:44:45.265625,30.51
2019-08-16 10:44:45.281250,27.27
2019-08-16 10:44:45.296875,26.99
2019-08-16 10:44:45.312500,26.56
2019-08-16 10:44:45.328125,23.74
2019-08-16 10:44:45.343750,18.71
2019-08-16 10:44:45.359375,13.96
2019-08-16 10:44:45.375000,12.73
2019-08-16 10:44:45.390625,16.65
2019-08-16 10:44:45.406250,24.59
2019-08-16 10:44:45.421875,32.92
2019-08-16 10:44:45.437500,37.32
2019-08-16 10:44:45.453125,35.17
2019-08-16 10:44:45.468750,26.83
2019-08-16 10:44:45.484375,15.55
2019-08-16 10:44:45.500000,5.94
2019-08-16 10:44:45.515625,1.59
2019-08-16 10:44:45.531250,3.37
2019-08-16 10:44:45.546875,9.16
2019-08-16 10:44:45.562500,14.97
2019-08-16 10:44:45.578125,17.25
2019-08-16 10:44:45.593750,14.74
2019-08-16 10:44:45.609375,9.12
2019-08-16 10:44:45.625000,3.82
2019-08-16 10:44:45.640625,1.9
2019-08-16 10:44:45.656250,4.23
2019-08-16 10:44:45.671875,9.04
2019-08-16 10:44:45.687500,13.33
2019-08-16 10:44:45.703125,14.69
2019-08-16 10:44:45.718750,12.92
2019-08-16 10:44:45.734375,9.99
2019-08-16 10:44:45.750000,8.55
2019-08-16 10:44:45.765625,10.18
2019-08-16 10:44:45.781250,14.36
2019-08-16 10:44:45.796875,18.61
2019-08-16 10:44:45.812500,20.05
2019-08-16 10:44:45.828125,17.14
2019-08-16 10:44:45.843750,10.69
2019-08-16 10:44:45.859375,3.49
2019-08-16 10:44:45.875000,-0.98
2019-08-16 10:44:45.890625,-0.4
2019-08-16 10:44:45.906250,5.28
2019-08-16 10:44:45.921875,13.81
2019-08-16 10:44:45.937500,21.72
2019-08-16 10:44:45.953125,26.03
2019-08-16 10:44:45.968750,25.66
2019-08-16 10:44:45.984375,21.68
2019-08-16 10:44:46.000000,16.76
2019-08-16 10:44:46.015625,13.6
2019-08-16 10:44:46.031250,13.44
2019-08-16 10:44:46.046875,15.7
2019-08-16 10:44:46.062500,18.42
2019-08-16 10:44:46.078125,19.5
2019-08-16 10:44:46.093750,17.91
2019-08-16 10:44:46.109375,14.17
2019-08-16 10:44:46.125000,9.97
2019-08-16 10:44:46.140625,7.28
2019-08-16 10:44:46.156250,7.31
2019-08-16 10:44:46.171875,9.88
2019-08-16 10:44:46.187500,13.44
2019-08-16 10:44:46.203125,15.95
2019-08-16 10:44:46.218750,15.75
2019-08-16 10:44:46.234375,12.64
2019-08-16 10:44:46.250000,8.05
2019-08-16 10:44:46.265625,4.33
2019-08-16 10:44:46.281250,3.63
2019-08-16 10:44:46.296875,6.56
2019-08-16 10:44:46.312500,11.75
2019-08-16 10:44:46.328125,16.37
2019-08-16 10:44:46.343750,17.8
2019-08-16 10:44:46.359375,15.11
2019-08-16 10:44:46.375000,9.68
2019-08-16 10:44:46.390625,4.54
2019-08-16 10:44:46.406250,2.42
2019-08-16 10:44:46.421875,4.2
2019-08-16 10:44:46.437500,8.19
2019-08-16 10:44:46.453125,11.2
2019-08-16 10:44:46.468750,10.53
2019-08-16 10:44:46.484375,5.66
2019-08-16 10:44:46.500000,-1.39
2019-08-16 10:44:46.515625,-7.17
2019-08-16 10:44:46.531250,-9.02
2019-08-16 10:44:46.546875,-6.59
2019-08-16 10:44:46.562500,-1.96
2019-08-16 10:44:46.578125,1.54
2019-08-16 10:44:46.593750,1.55
2019-08-16 10:44:46.609375,-2.11
2019-08-16 10:44:46.625000,-7.18
2019-08-16 10:44:46.640625,-10.45
2019-08-16 10:44:46.656250,-9.54
2019-08-16 10:44:46.671875,-4.29
2019-08-16 10:44:46.687500,3.07
2019-08-16 10:44:46.703125,9.24
2019-08-16 10:44:46.718750,11.58
2019-08-16 10:44:46.734375,9.63
2019-08-16 10:44:46.750000,5.31
2019-08-16 10:44:46.765625,1.77
2019-08-16 10:44:46.781250,1.54
2019-08-16 10:44:46.796875,4.98
2019-08-16 10:44:46.812500,10.02
2019-08-16 10:44:46.828125,13.34
2019-08-16 10:44:46.843750,12.45
2019-08-16 10:44:46.859375,7.48
2019-08-16 10:44:46.875000,1.22
2019-08-16 10:44:46.890625,-2.48
2019-08-16 10:44:46.906250,-1.0
2019-08-16 10:44:46.921875,5.38
2019-08-16 10:44:46.937500,13.57
2019-08-16 10:44:46.953125,19.49
2019-08-16 10:44:46.968750,20.39
2019-08-16 10:44:46.984375,16.39
2019-08-16 10:44:47.000000,10.04
2019-08-16 10:44:47.015625,4.98
2019-08-16 10:44:47.031250,3.74
2019-08-16 10:44:47.046875,6.38
2019-08-16 10:44:47.062500,10.57
2019-08-16 10:44:47.078125,12.93
2019-08-16 10:44:47.093750,10.97
2019-08-16 10:44:47.109375,4.57
2019-08-16 10:44:47.125000,-3.73
2019-08-16 10:44:47.140625,-10.03
2019-08-16 10:44:47.156250,-11.19
2019-08-16 10:44:47.171875,-6.66
2019-08-16 10:44:47.187500,1.05
2019-08-16 10:44:47.203125,7.66
2019-08-16 10:44:47.218750,9.48
2019-08-16 10:44:47.234375,5.62
2019-08-16 10:44:47.250000,-1.49
2019-08-16 10:44:47.265625,-7.68
2019-08-16 10:44:47.281250,-9.58
2019-08-16 10:44:47.296875,-6.68
2019-08-16 10:44:47.312500,-1.63
2019-08-16 10:44:47.328125,1.61
2019-08-16 10:44:47.343750,0.38
2019-08-16 10:44:47.359375,-4.98
2019-08-16 10:44:47.375000,-11.27
2019-08-16 10:44:47.390625,-14.45
2019-08-16 10:44:47.406250,-12.02
2019-08-16 10:44:47.421875,-4.47
2019-08-16 10:44:47.437500,5.07
2019-08-16 10:44:47.453125,12.54
2019-08-16 10:44:47.468750,15.27
2019-08-16 10:44:47.484375,13.04
2019-08-16 10:44:47.500000,8.08
2019-08-16 10:44:47.515625,3.76
2019-08-16 10:44:47.531250,2.61
2019-08-16 10:44:47.546875,5.2
2019-08-16 10:44:47.562500,9.97
2019-08-16 10:44:47.578125,14.17
2019-08-16 10:44:47.593750,15.34
2019-08-16 10:44:47.609375,12.66
2019-08-16 10:44:47.625000,7.38
2019-08-16 10:44:47.640625,2.14
2019-08-16 10:44:47.656250,-0.4
2019-08-16 10:44:47.671875,1.08
2019-08-16 10:44:47.687500,5.81
2019-08-16 10:44:47.703125,11.29
2019-08-16 10:44:47.718750,14.71
2019-08-16 10:44:47.734375,14.42
2019-08-16 10:44:47.750000,10.8
2019-08-16 10:44:47.765625,5.86
2019-08-16 10:44:47.781250,2.13
2019-08-16 10:44:47.796875,1.09
2019-08-16 10:44:47.812500,2.35
2019-08-16 10:44:47.828125,4.08
2019-08-16 10:44:47.843750,4.17
2019-08-16 10:44:47.859375,1.57
2019-08-16 10:44:47.875000,-2.91
2019-08-16 10:44:47.890625,-6.97
2019-08-16 10:44:47.906250,-8.17
2019-08-16 10:44:47.921875,-5.47
2019-08-16 10:44:47.937500,0.03
2019-08-16 10:44:47.953125,5.49
2019-08-16 10:44:47.968750,7.99
2019-08-16 10:44:47.984375,6.21
2019-08-16 10:44:48.000000,1.29
2019-08-16 10:44:48.015625,-3.69
2019-08-16 10:44:48.031250,-5.57
2019-08-16 10:44:48.046875,-3.15
2019-08-16 10:44:48.062500,2.06
2019-08-16 10:44:48.078125,6.6
2019-08-16 10:44:48.093750,7.19
2019-08-16 10:44:48.109375,2.92
2019-08-16 10:44:48.125000,-3.99
2019-08-16 10:44:48.140625,-9.51
2019-08-16 10:44:48.156250,-10.22
2019-08-16 10:44:48.171875,-5.44
2019-08-16 10:44:48.187500,2.4
2019-08-16 10:44:48.203125,9.21
2019-08-16 10:44:48.218750,11.84
2019-08-16 10:44:48.234375,9.78
2019-08-16 10:44:48.250000,5.33
2019-08-16 10:44:48.265625,1.9
2019-08-16 10:44:48.281250,2.0
2019-08-16 10:44:48.296875,5.71
2019-08-16 10:44:48.312500,10.76
2019-08-16 10:44:48.328125,14.05
2019-08-16 10:44:48.343750,13.47
2019-08-16 10:44:48.359375,9.11
2019-08-16 10:44:48.375000,3.17
2019-08-16 10:44:48.390625,-1.3
2019-08-16 10:44:48.406250,-2.07
2019-08-16 10:44:48.421875,1.18
2019-08-16 10:44:48.437500,6.66
2019-08-16 10:44:48.453125,11.4
2019-08-16 10:44:48.468750,12.75
2019-08-16 10:44:48.484375,9.92
2019-08-16 10:44:48.500000,4.43
2019-08-16 10:44:48.515625,-0.58
2019-08-16 10:44:48.531250,-2.15
2019-08-16 10:44:48.546875,0.64
2019-08-16 10:44:48.562500,6.08
2019-08-16 10:44:48.578125,10.76
2019-08-16 10:44:48.593750,11.56
2019-08-16 10:44:48.609375,7.64
2019-08-16 10:44:48.625000,1.01
2019-08-16 10:44:48.640625,-4.7
2019-08-16 10:44:48.656250,-6.39
2019-08-16 10:44:48.671875,-3.51
2019-08-16 10:44:48.687500,1.63
2019-08-16 10:44:48.703125,5.3
2019-08-16 10:44:48.718750,4.64
2019-08-16 10:44:48.734375,-0.6
2019-08-16 10:44:48.750000,-7.87
2019-08-16 10:44:48.765625,-13.39
2019-08-16 10:44:48.781250,-14.17
2019-08-16 10:44:48.796875,-9.83
2019-08-16 10:44:48.812500,-2.48
2019-08-16 10:44:48.828125,4.39
2019-08-16 10:44:48.843750,7.76
2019-08-16 10:44:48.859375,6.62
2019-08-16 10:44:48.875000,2.21
2019-08-16 10:44:48.890625,-2.75
2019-08-16 10:44:48.906250,-5.68
2019-08-16 10:44:48.921875,-5.38
2019-08-16 10:44:48.937500,-2.51
2019-08-16 10:44:48.953125,0.9
2019-08-16 10:44:48.968750,2.73
2019-08-16 10:44:48.984375,1.94
2019-08-16 10:44:49.000000,-0.98
2019-08-16 10:44:49.015625,-4.19
2019-08-16 10:44:49.031250,-5.63
2019-08-16 10:44:49.046875,-4.21
2019-08-16 10:44:49.062500,-0.39
2019-08-16 10:44:49.078125,4.04
2019-08-16 10:44:49.093750,7.03
2019-08-16 10:44:49.109375,7.46
2019-08-16 10:44:49.125000,5.76
2019-08-16 10:44:49.140625,3.66
2019-08-16 10:44:49.156250,3.06
2019-08-16 10:44:49.171875,4.89
2019-08-16 10:44:49.187500,8.39
2019-08-16 10:44:49.203125,11.55
2019-08-16 10:44:49.218750,12.34
2019-08-16 10:44:49.234375,10.07
2019-08-16 10:44:49.250000,5.92
2019-08-16 10:44:49.265625,2.41
2019-08-16 10:44:49.281250,2.16
2019-08-16 10:44:49.296875,6.13
2019-08-16 10:44:49.312500,13.05
2019-08-16 10:44:49.328125,19.82
2019-08-16 10:44:49.343750,23.01
2019-08-16 10:44:49.359375,20.84
2019-08-16 10:44:49.375000,14.26
2019-08-16 10:44:49.390625,6.52
2019-08-16 10:44:49.406250,1.41
2019-08-16 10:44:49.421875,1.15
2019-08-16 10:44:49.437500,5.12
2019-08-16 10:44:49.453125,10.17
2019-08-16 10:44:49.468750,12.61
2019-08-16 10:44:49.484375,10.52
2019-08-16 10:44:49.500000,4.79
2019-08-16 10:44:49.515625,-1.41
2019-08-16 10:44:49.531250,-4.74
2019-08-16 10:44:49.546875,-3.82
2019-08-16 10:44:49.562500,0.05
2019-08-16 10:44:49.578125,3.84
2019-08-16 10:44:49.593750,4.85
2019-08-16 10:44:49.609375,2.39
2019-08-16 10:44:49.625000,-1.9
2019-08-16 10:44:49.640625,-5.36
2019-08-16 10:44:49.656250,-6.11
2019-08-16 10:44:49.671875,-4.21
2019-08-16 10:44:49.687500,-1.41
2019-08-16 10:44:49.703125,-0.04
2019-08-16 10:44:49.718750,-1.51
2019-08-16 10:44:49.734375,-5.48
2019-08-16 10:44:49.750000,-10.23
2019-08-16 10:44:49.765625,-13.6
2019-08-16 10:44:49.781250,-14.2
2019-08-16 10:44:49.796875,-12.02
2019-08-16 10:44:49.812500,-8.45
2019-08-16 10:44:49.828125,-5.56
2019-08-16 10:44:49.843750,-5.29
2019-08-16 10:44:49.859375,-8.3
2019-08-16 10:44:49.875000,-13.61
2019-08-16 10:44:49.890625,-18.74
2019-08-16 10:44:49.906250,-20.85
2019-08-16 10:44:49.921875,-18.13
2019-08-16 10:44:49.937500,-11.01
2019-08-16 10:44:49.953125,-2.21
2019-08-16 10:44:49.968750,4.55
2019-08-16 10:44:49.984375,6.6
2019-08-16 10:44:50.000000,3.97
2019-08-16 10:44:50.015625,-0.38
2019-08-16 10:44:50.031250,-2.33
2019-08-16 10:44:50.046875,0.89
2019-08-16 10:44:50.062500,8.79
2019-08-16 10:44:50.078125,17.84
2019-08-16 10:44:50.093750,23.41
2019-08-16 10:44:50.109375,22.75
2019-08-16 10:44:50.125000,16.64
2019-08-16 10:44:50.140625,8.85
2019-08-16 10:44:50.156250,3.91
2019-08-16 10:44:50.171875,4.28
2019-08-16 10:44:50.187500,9.16
2019-08-16 10:44:50.203125,15.11
2019-08-16 10:44:50.218750,18.33
2019-08-16 10:44:50.234375,16.89
2019-08-16 10:44:50.250000,11.6
2019-08-16 10:44:50.265625,5.4
2019-08-16 10:44:50.281250,1.24
2019-08-16 10:44:50.296875,0.64
2019-08-16 10:44:50.312500,2.91
2019-08-16 10:44:50.328125,6.02
2019-08-16 10:44:50.343750,7.87
2019-08-16 10:44:50.359375,7.57
2019-08-16 10:44:50.375000,5.72
2019-08-16 10:44:50.390625,3.81
2019-08-16 10:44:50.406250,3.23
2019-08-16 10:44:50.421875,4.42
2019-08-16 10:44:50.437500,6.57
2019-08-16 10:44:50.453125,8.02
2019-08-16 10:44:50.468750,7.28
2019-08-16 10:44:50.484375,3.81
2019-08-16 10:44:50.500000,-1.55
2019-08-16 10:44:50.515625,-6.76
2019-08-16 10:44:50.531250,-9.62
2019-08-16 10:44:50.546875,-8.8
2019-08-16 10:44:50.562500,-4.66
2019-08-16 10:44:50.578125,0.92
2019-08-16 10:44:50.593750,5.24
2019-08-16 10:44:50.609375,6.33
2019-08-16 10:44:50.625000,3.85
2019-08-16 10:44:50.640625,-0.71
2019-08-16 10:44:50.656250,-4.87
2019-08-16 10:44:50.671875,-6.64
2019-08-16 10:44:50.687500,-5.64
2019-08-16 10:44:50.703125,-3.53
2019-08-16 10:44:50.718750,-2.71
2019-08-16 10:44:50.734375,-4.95
2019-08-16 10:44:50.750000,-10.06
2019-08-16 10:44:50.765625,-15.83
2019-08-16 10:44:50.781250,-19.34
2019-08-16 10:44:50.796875,-18.58
2019-08-16 10:44:50.812500,-13.68
2019-08-16 10:44:50.828125,-6.82
2019-08-16 10:44:50.843750,-1.06
2019-08-16 10:44:50.859375,1.38
2019-08-16 10:44:50.875000,0.27
2019-08-16 10:44:50.890625,-2.58
2019-08-16 10:44:50.906250,-4.49
2019-08-16 10:44:50.921875,-3.38
2019-08-16 10:44:50.937500,1.08
2019-08-16 10:44:50.953125,7.34
2019-08-16 10:44:50.968750,12.98
2019-08-16 10:44:50.984375,16.16
2019-08-16 10:44:51.000000,16.55
2019-08-16 10:44:51.015625,15.47
2019-08-16 10:44:51.031250,14.94
2019-08-16 10:44:51.046875,16.39
2019-08-16 10:44:51.062500,19.84
2019-08-16 10:44:51.078125,23.99
2019-08-16 10:44:51.093750,26.81
2019-08-16 10:44:51.109375,26.81
2019-08-16 10:44:51.125000,23.85
2019-08-16 10:44:51.140625,19.18
2019-08-16 10:44:51.156250,14.82
2019-08-16 10:44:51.171875,12.55
2019-08-16 10:44:51.187500,12.94
2019-08-16 10:44:51.203125,15.05
2019-08-16 10:44:51.218750,16.89
2019-08-16 10:44:51.234375,16.61
2019-08-16 10:44:51.250000,13.6
2019-08-16 10:44:51.265625,8.98
2019-08-16 10:44:51.281250,5.04
2019-08-16 10:44:51.296875,3.77
2019-08-16 10:44:51.312500,5.56
2019-08-16 10:44:51.328125,8.85
2019-08-16 10:44:51.343750,10.95
2019-08-16 10:44:51.359375,9.8
2019-08-16 10:44:51.375000,5.36
2019-08-16 10:44:51.390625,-0.25
2019-08-16 10:44:51.406250,-4.2
2019-08-16 10:44:51.421875,-4.69
2019-08-16 10:44:51.437500,-2.07
2019-08-16 10:44:51.453125,1.53
2019-08-16 10:44:51.468750,3.63
2019-08-16 10:44:51.484375,2.74
2019-08-16 10:44:51.500000,-1.35
2019-08-16 10:44:51.515625,-8.0
2019-08-16 10:44:51.531250,-16.57
2019-08-16 10:44:51.546875,-26.68
2019-08-16 10:44:51.562500,-37.86
2019-08-16 10:44:51.578125,-48.98
2019-08-16 10:44:51.593750,-58.33
2019-08-16 10:44:51.609375,-64.18
2019-08-16 10:44:51.625000,-65.6
2019-08-16 10:44:51.640625,-62.81
2019-08-16 10:44:51.656250,-56.95
2019-08-16 10:44:51.671875,-49.48
2019-08-16 10:44:51.687500,-41.67
2019-08-16 10:44:51.703125,-34.44
2019-08-16 10:44:51.718750,-28.41
2019-08-16 10:44:51.734375,-23.92
2019-08-16 10:44:51.750000,-20.75
2019-08-16 10:44:51.765625,-17.89
2019-08-16 10:44:51.781250,-13.83
2019-08-16 10:44:51.796875,-7.38
2019-08-16 10:44:51.812500,1.44
2019-08-16 10:44:51.828125,10.98
2019-08-16 10:44:51.843750,18.71
2019-08-16 10:44:51.859375,22.43
2019-08-16 10:44:51.875000,21.55
2019-08-16 10:44:51.890625,17.47
2019-08-16 10:44:51.906250,12.84
2019-08-16 10:44:51.921875,10.23
2019-08-16 10:44:51.937500,10.88
2019-08-16 10:44:51.953125,14.23
2019-08-16 10:44:51.968750,18.46
2019-08-16 10:44:51.984375,21.54
2019-08-16 10:44:52.000000,22.29
2019-08-16 10:44:52.015625,20.83
2019-08-16 10:44:52.031250,18.31
2019-08-16 10:44:52.046875,16.08
2019-08-16 10:44:52.062500,14.94
2019-08-16 10:44:52.078125,14.7
2019-08-16 10:44:52.093750,14.48
2019-08-16 10:44:52.109375,13.36
2019-08-16 10:44:52.125000,11.09
2019-08-16 10:44:52.140625,8.32
2019-08-16 10:44:52.156250,6.16
2019-08-16 10:44:52.171875,5.5
2019-08-16 10:44:52.187500,6.34
2019-08-16 10:44:52.203125,7.71
2019-08-16 10:44:52.218750,8.21
2019-08-16 10:44:52.234375,6.73
2019-08-16 10:44:52.250000,3.19
2019-08-16 10:44:52.265625,-1.22
2019-08-16 10:44:52.281250,-4.47
2019-08-16 10:44:52.296875,-4.7
2019-08-16 10:44:52.312500,-1.21
2019-08-16 10:44:52.328125,4.97
2019-08-16 10:44:52.343750,11.28
2019-08-16 10:44:52.359375,14.81
2019-08-16 10:44:52.375000,13.76
2019-08-16 10:44:52.390625,8.44
2019-08-16 10:44:52.406250,1.27
2019-08-16 10:44:52.421875,-4.51
2019-08-16 10:44:52.437500,-6.39
2019-08-16 10:44:52.453125,-3.97
2019-08-16 10:44:52.468750,0.92
2019-08-16 10:44:52.484375,5.46
2019-08-16 10:44:52.500000,7.37
2019-08-16 10:44:52.515625,6.11
2019-08-16 10:44:52.531250,2.92
2019-08-16 10:44:52.546875,-0.09
2019-08-16 10:44:52.562500,-1.38
2019-08-16 10:44:52.578125,-0.68
2019-08-16 10:44:52.593750,1.06
2019-08-16 10:44:52.609375,2.54
2019-08-16 10:44:52.625000,3.0
2019-08-16 10:44:52.640625,2.71
2019-08-16 10:44:52.656250,2.58
2019-08-16 10:44:52.671875,3.47
2019-08-16 10:44:52.687500,5.48
2019-08-16 10:44:52.703125,7.73
2019-08-16 10:44:52.718750,8.79
2019-08-16 10:44:52.734375,7.49
2019-08-16 10:44:52.750000,3.81
2019-08-16 10:44:52.765625,-0.87
2019-08-16 10:44:52.781250,-4.35
2019-08-16 10:44:52.796875,-4.59
2019-08-16 10:44:52.812500,-1.0
2019-08-16 10:44:52.828125,5.23
2019-08-16 10:44:52.843750,11.4
2019-08-16 10:44:52.859375,14.71
2019-08-16 10:44:52.875000,13.59
2019-08-16 10:44:52.890625,8.73
2019-08-16 10:44:52.906250,2.84
2019-08-16 10:44:52.921875,-0.83
2019-08-16 10:44:52.937500,-0.08
2019-08-16 10:44:52.953125,4.79
2019-08-16 10:44:52.968750,11.12
2019-08-16 10:44:52.984375,15.23
2019-08-16 10:44:53.000000,14.51
2019-08-16 10:44:53.015625,8.9
2019-08-16 10:44:53.031250,0.87
2019-08-16 10:44:53.046875,-5.9
2019-08-16 10:44:53.062500,-8.66
2019-08-16 10:44:53.078125,-7.05
2019-08-16 10:44:53.093750,-3.14
2019-08-16 10:44:53.109375,-0.19
2019-08-16 10:44:53.125000,-0.41
2019-08-16 10:44:53.140625,-3.77
2019-08-16 10:44:53.156250,-8.06
2019-08-16 10:44:53.171875,-10.41
2019-08-16 10:44:53.187500,-9.18
2019-08-16 10:44:53.203125,-5.0
2019-08-16 10:44:53.218750,-0.32
2019-08-16 10:44:53.234375,2.12
2019-08-16 10:44:53.250000,0.9
2019-08-16 10:44:53.265625,-3.31
2019-08-16 10:44:53.281250,-8.2
2019-08-16 10:44:53.296875,-11.3
2019-08-16 10:44:53.312500,-11.44
2019-08-16 10:44:53.328125,-9.25
2019-08-16 10:44:53.343750,-6.73
2019-08-16 10:44:53.359375,-5.97
2019-08-16 10:44:53.375000,-7.86
2019-08-16 10:44:53.390625,-11.47
2019-08-16 10:44:53.406250,-14.48
2019-08-16 10:44:53.421875,-14.48
2019-08-16 10:44:53.437500,-10.27
2019-08-16 10:44:53.453125,-2.61
2019-08-16 10:44:53.468750,5.98
2019-08-16 10:44:53.484375,12.43
2019-08-16 10:44:53.500000,14.5
2019-08-16 10:44:53.515625,11.97
2019-08-16 10:44:53.531250,6.7
2019-08-16 10:44:53.546875,1.77
2019-08-16 10:44:53.562500,-0.13
2019-08-16 10:44:53.578125,1.87
2019-08-16 10:44:53.593750,6.55
2019-08-16 10:44:53.609375,11.24
2019-08-16 10:44:53.625000,13.52
2019-08-16 10:44:53.640625,12.56
2019-08-16 10:44:53.656250,9.68
2019-08-16 10:44:53.671875,7.3
2019-08-16 10:44:53.687500,7.47
2019-08-16 10:44:53.703125,10.41
2019-08-16 10:44:53.718750,14.24
2019-08-16 10:44:53.734375,16.27
2019-08-16 10:44:53.750000,14.7
2019-08-16 10:44:53.765625,9.97
2019-08-16 10:44:53.781250,4.62
2019-08-16 10:44:53.796875,1.76
2019-08-16 10:44:53.812500,2.92
2019-08-16 10:44:53.828125,6.93
2019-08-16 10:44:53.843750,10.44
2019-08-16 10:44:53.859375,10.05
2019-08-16 10:44:53.875000,4.57
2019-08-16 10:44:53.890625,-4.07
2019-08-16 10:44:53.906250,-11.68
2019-08-16 10:44:53.921875,-14.26
2019-08-16 10:44:53.937500,-10.37
2019-08-16 10:44:53.953125,-2.1
2019-08-16 10:44:53.968750,6.26
2019-08-16 10:44:53.984375,10.53
2019-08-16 10:44:54.000000,8.91
2019-08-16 10:44:54.015625,2.8
2019-08-16 10:44:54.031250,-4.18
2019-08-16 10:44:54.046875,-8.44
2019-08-16 10:44:54.062500,-8.29
2019-08-16 10:44:54.078125,-4.73
2019-08-16 10:44:54.093750,-0.82
2019-08-16 10:44:54.109375,0.2
2019-08-16 10:44:54.125000,-3.16
2019-08-16 10:44:54.140625,-9.95
2019-08-16 10:44:54.156250,-17.06
2019-08-16 10:44:54.171875,-20.87
2019-08-16 10:44:54.187500,-19.17
2019-08-16 10:44:54.203125,-12.34
2019-08-16 10:44:54.218750,-3.33
2019-08-16 10:44:54.234375,3.88
2019-08-16 10:44:54.250000,6.44
2019-08-16 10:44:54.265625,3.97
2019-08-16 10:44:54.281250,-1.14
2019-08-16 10:44:54.296875,-5.29
2019-08-16 10:44:54.312500,-5.74
2019-08-16 10:44:54.328125,-2.05
2019-08-16 10:44:54.343750,3.82
2019-08-16 10:44:54.359375,8.82
2019-08-16 10:44:54.375000,10.68
2019-08-16 10:44:54.390625,9.16
2019-08-16 10:44:54.406250,5.94
2019-08-16 10:44:54.421875,3.4
2019-08-16 10:44:54.437500,3.37
2019-08-16 10:44:54.453125,5.96
2019-08-16 10:44:54.468750,9.74
2019-08-16 10:44:54.484375,12.58
2019-08-16 10:44:54.500000,12.89
2019-08-16 10:44:54.515625,10.4
2019-08-16 10:44:54.531250,6.4
2019-08-16 10:44:54.546875,3.09
2019-08-16 10:44:54.562500,2.29
2019-08-16 10:44:54.578125,4.46
2019-08-16 10:44:54.593750,8.09
2019-08-16 10:44:54.609375,10.35
2019-08-16 10:44:54.625000,8.86
2019-08-16 10:44:54.640625,3.19
2019-08-16 10:44:54.656250,-4.52
2019-08-16 10:44:54.671875,-10.61
2019-08-16 10:44:54.687500,-11.98
2019-08-16 10:44:54.703125,-8.03
2019-08-16 10:44:54.718750,-1.14
2019-08-16 10:44:54.734375,4.68
2019-08-16 10:44:54.750000,6.23
2019-08-16 10:44:54.765625,2.89
2019-08-16 10:44:54.781250,-3.13
2019-08-16 10:44:54.796875,-8.22
2019-08-16 10:44:54.812500,-9.77
2019-08-16 10:44:54.828125,-7.61
2019-08-16 10:44:54.843750,-3.93
2019-08-16 10:44:54.859375,-1.78
2019-08-16 10:44:54.875000,-3.11
2019-08-16 10:44:54.890625,-7.49
2019-08-16 10:44:54.906250,-12.3
2019-08-16 10:44:54.921875,-14.43
2019-08-16 10:44:54.937500,-11.94
2019-08-16 10:44:54.953125,-5.36
2019-08-16 10:44:54.968750,2.52
2019-08-16 10:44:54.984375,8.07
2019-08-16 10:44:55.000000,8.96
2019-08-16 10:44:55.015625,5.43
2019-08-16 10:44:55.031250,0.22
2019-08-16 10:44:55.046875,-2.91
2019-08-16 10:44:55.062500,-1.53
2019-08-16 10:44:55.078125,4.14
2019-08-16 10:44:55.093750,11.26
2019-08-16 10:44:55.109375,15.97
2019-08-16 10:44:55.125000,15.67
2019-08-16 10:44:55.140625,10.45
2019-08-16 10:44:55.156250,3.07
2019-08-16 10:44:55.171875,-2.63
2019-08-16 10:44:55.187500,-3.65
2019-08-16 10:44:55.203125,0.51
2019-08-16 10:44:55.218750,7.77
2019-08-16 10:44:55.234375,14.57
2019-08-16 10:44:55.250000,17.78
2019-08-16 10:44:55.265625,16.33
2019-08-16 10:44:55.281250,11.58
2019-08-16 10:44:55.296875,6.45
2019-08-16 10:44:55.312500,3.77
2019-08-16 10:44:55.328125,4.63
2019-08-16 10:44:55.343750,7.83
2019-08-16 10:44:55.359375,10.8
2019-08-16 10:44:55.375000,11.12
2019-08-16 10:44:55.390625,8.0
2019-08-16 10:44:55.406250,2.83
2019-08-16 10:44:55.421875,-1.84
2019-08-16 10:44:55.437500,-3.84
2019-08-16 10:44:55.453125,-2.61
2019-08-16 10:44:55.468750,0.42
2019-08-16 10:44:55.484375,2.77
2019-08-16 10:44:55.500000,2.5
2019-08-16 10:44:55.515625,-0.66
2019-08-16 10:44:55.531250,-5.27
2019-08-16 10:44:55.546875,-8.9
2019-08-16 10:44:55.562500,-9.71
2019-08-16 10:44:55.578125,-7.37
2019-08-16 10:44:55.593750,-3.29
2019-08-16 10:44:55.609375,0.1
2019-08-16 10:44:55.625000,0.65
2019-08-16 10:44:55.640625,-2.43
2019-08-16 10:44:55.656250,-8.07
2019-08-16 10:44:55.671875,-13.88
2019-08-16 10:44:55.687500,-17.28
2019-08-16 10:44:55.703125,-16.79
2019-08-16 10:44:55.718750,-12.69
2019-08-16 10:44:55.734375,-6.83
2019-08-16 10:44:55.750000,-1.71
2019-08-16 10:44:55.765625,0.8
2019-08-16 10:44:55.781250,0.42
2019-08-16 10:44:55.796875,-1.53
2019-08-16 10:44:55.812500,-2.83
2019-08-16 10:44:55.828125,-1.67
2019-08-16 10:44:55.843750,2.14
2019-08-16 10:44:55.859375,7.04
2019-08-16 10:44:55.875000,10.43
2019-08-16 10:44:55.890625,10.29
2019-08-16 10:44:55.906250,6.55
2019-08-16 10:44:55.921875,1.35
2019-08-16 10:44:55.937500,-2.15
2019-08-16 10:44:55.953125,-1.64
2019-08-16 10:44:55.968750,2.84
2019-08-16 10:44:55.984375,8.77
2019-08-16 10:44:56.000000,12.53
2019-08-16 10:44:56.015625,11.7
2019-08-16 10:44:56.031250,6.42
2019-08-16 10:44:56.046875,-0.5
2019-08-16 10:44:56.062500,-5.27
2019-08-16 10:44:56.078125,-5.34
2019-08-16 10:44:56.093750,-1.03
2019-08-16 10:44:56.109375,4.94
2019-08-16 10:44:56.125000,9.0
2019-08-16 10:44:56.140625,8.92
2019-08-16 10:44:56.156250,5.27
2019-08-16 10:44:56.171875,0.8
2019-08-16 10:44:56.187500,-1.3
2019-08-16 10:44:56.203125,0.54
2019-08-16 10:44:56.218750,5.19
2019-08-16 10:44:56.234375,9.62
2019-08-16 10:44:56.250000,10.66
2019-08-16 10:44:56.265625,7.08
2019-08-16 10:44:56.281250,0.35
2019-08-16 10:44:56.296875,-6.22
2019-08-16 10:44:56.312500,-9.41
2019-08-16 10:44:56.328125,-7.88
2019-08-16 10:44:56.343750,-3.02
2019-08-16 10:44:56.359375,1.95
2019-08-16 10:44:56.375000,3.94
2019-08-16 10:44:56.390625,1.59
2019-08-16 10:44:56.406250,-4.0
2019-08-16 10:44:56.421875,-10.06
2019-08-16 10:44:56.437500,-13.95
2019-08-16 10:44:56.453125,-14.54
2019-08-16 10:44:56.468750,-12.79
2019-08-16 10:44:56.484375,-10.97
2019-08-16 10:44:56.500000,-11.16
2019-08-16 10:44:56.515625,-13.95
2019-08-16 10:44:56.531250,-18.08
2019-08-16 10:44:56.546875,-21.07
2019-08-16 10:44:56.562500,-20.76
2019-08-16 10:44:56.578125,-16.56
2019-08-16 10:44:56.593750,-9.86
2019-08-16 10:44:56.609375,-3.29
2019-08-16 10:44:56.625000,0.65
2019-08-16 10:44:56.640625,0.96
2019-08-16 10:44:56.656250,-1.46
2019-08-16 10:44:56.671875,-4.34
2019-08-16 10:44:56.687500,-5.21
2019-08-16 10:44:56.703125,-2.74
2019-08-16 10:44:56.718750,2.47
2019-08-16 10:44:56.734375,8.35
2019-08-16 10:44:56.750000,12.25
2019-08-16 10:44:56.765625,12.52
2019-08-16 10:44:56.781250,9.36
2019-08-16 10:44:56.796875,4.87
2019-08-16 10:44:56.812500,1.88
2019-08-16 10:44:56.828125,2.49
2019-08-16 10:44:56.843750,6.76
2019-08-16 10:44:56.859375,12.75
2019-08-16 10:44:56.875000,17.51
2019-08-16 10:44:56.890625,18.7
2019-08-16 10:44:56.906250,16.08
2019-08-16 10:44:56.921875,11.57
2019-08-16 10:44:56.937500,7.97
2019-08-16 10:44:56.953125,7.35
2019-08-16 10:44:56.968750,9.72
2019-08-16 10:44:56.984375,13.02
2019-08-16 10:44:57.000000,14.52
2019-08-16 10:44:57.015625,12.59
2019-08-16 10:44:57.031250,7.7
2019-08-16 10:44:57.046875,2.31
2019-08-16 10:44:57.062500,-0.74
2019-08-16 10:44:57.078125,0.02
2019-08-16 10:44:57.093750,3.79
2019-08-16 10:44:57.109375,7.82
2019-08-16 10:44:57.125000,8.92
2019-08-16 10:44:57.140625,5.48
2019-08-16 10:44:57.156250,-1.63
2019-08-16 10:44:57.171875,-9.37
2019-08-16 10:44:57.187500,-14.04
2019-08-16 10:44:57.203125,-13.44
2019-08-16 10:44:57.218750,-8.1
2019-08-16 10:44:57.234375,-1.03
2019-08-16 10:44:57.250000,3.82
2019-08-16 10:44:57.265625,3.62
2019-08-16 10:44:57.281250,-1.68
2019-08-16 10:44:57.296875,-9.44
2019-08-16 10:44:57.312500,-15.88
2019-08-16 10:44:57.328125,-18.04
2019-08-16 10:44:57.343750,-15.46
2019-08-16 10:44:57.359375,-10.05
2019-08-16 10:44:57.375000,-4.81
2019-08-16 10:44:57.390625,-1.99
2019-08-16 10:44:57.406250,-1.85
2019-08-16 10:44:57.421875,-2.66
2019-08-16 10:44:57.437500,-2.04
2019-08-16 10:44:57.453125,1.37
2019-08-16 10:44:57.468750,7.06
2019-08-16 10:44:57.484375,12.72
2019-08-16 10:44:57.500000,15.61
2019-08-16 10:44:57.515625,14.17
2019-08-16 10:44:57.531250,9.02
2019-08-16 10:44:57.546875,2.73
2019-08-16 10:44:57.562500,-1.47
2019-08-16 10:44:57.578125,-1.49
2019-08-16 10:44:57.593750,2.51
2019-08-16 10:44:57.609375,8.26
2019-08-16 10:44:57.625000,12.64
2019-08-16 10:44:57.640625,13.47
2019-08-16 10:44:57.656250,10.6
2019-08-16 10:44:57.671875,5.92
2019-08-16 10:44:57.687500,2.08
2019-08-16 10:44:57.703125,1.01
2019-08-16 10:44:57.718750,2.79
2019-08-16 10:44:57.734375,5.78
2019-08-16 10:44:57.750000,7.68
2019-08-16 10:44:57.765625,6.85
2019-08-16 10:44:57.781250,3.29
2019-08-16 10:44:57.796875,-1.31
2019-08-16 10:44:57.812500,-4.61
2019-08-16 10:44:57.828125,-4.95
2019-08-16 10:44:57.843750,-2.22
2019-08-16 10:44:57.859375,1.82
2019-08-16 10:44:57.875000,4.51
2019-08-16 10:44:57.890625,3.71
2019-08-16 10:44:57.906250,-0.99
2019-08-16 10:44:57.921875,-7.85
2019-08-16 10:44:57.937500,-13.74
2019-08-16 10:44:57.953125,-15.96
2019-08-16 10:44:57.968750,-13.7
2019-08-16 10:44:57.984375,-8.54
2019-08-16 10:44:58.000000,-3.66
2019-08-16 10:44:58.015625,-2.02
2019-08-16 10:44:58.031250,-4.56
2019-08-16 10:44:58.046875,-9.85
2019-08-16 10:44:58.062500,-14.98
2019-08-16 10:44:58.078125,-17.16
2019-08-16 10:44:58.093750,-15.35
2019-08-16 10:44:58.109375,-10.69
2019-08-16 10:44:58.125000,-5.54
2019-08-16 10:44:58.140625,-2.08
2019-08-16 10:44:58.156250,-1.07
2019-08-16 10:44:58.171875,-1.47
2019-08-16 10:44:58.187500,-1.31
2019-08-16 10:44:58.203125,0.84
2019-08-16 10:44:58.218750,4.93
2019-08-16 10:44:58.234375,9.25
2019-08-16 10:44:58.250000,11.38
2019-08-16 10:44:58.265625,9.81
2019-08-16 10:44:58.281250,4.98
2019-08-16 10:44:58.296875,-0.57
2019-08-16 10:44:58.312500,-3.44
2019-08-16 10:44:58.328125,-1.38
2019-08-16 10:44:58.343750,5.24
2019-08-16 10:44:58.359375,13.4
2019-08-16 10:44:58.375000,18.87
2019-08-16 10:44:58.390625,18.56
2019-08-16 10:44:58.406250,12.42
2019-08-16 10:44:58.421875,3.43
2019-08-16 10:44:58.437500,-4.05
2019-08-16 10:44:58.453125,-6.58
2019-08-16 10:44:58.468750,-3.71
2019-08-16 10:44:58.484375,2.07
2019-08-16 10:44:58.500000,6.98
2019-08-16 10:44:58.515625,8.22
2019-08-16 10:44:58.531250,5.54
2019-08-16 10:44:58.546875,1.25
2019-08-16 10:44:58.562500,-1.73
2019-08-16 10:44:58.578125,-1.77
2019-08-16 10:44:58.593750,0.51
2019-08-16 10:44:58.609375,2.56
2019-08-16 10:44:58.625000,1.76
2019-08-16 10:44:58.640625,-2.64
2019-08-16 10:44:58.656250,-9.03
2019-08-16 10:44:58.671875,-14.22
2019-08-16 10:44:58.687500,-15.21
2019-08-16 10:44:58.703125,-11.1
2019-08-16 10:44:58.718750,-3.58
2019-08-16 10:44:58.734375,3.97
2019-08-16 10:44:58.750000,8.08
2019-08-16 10:44:58.765625,6.8
2019-08-16 10:44:58.781250,0.59
2019-08-16 10:44:58.796875,-8.18
2019-08-16 10:44:58.812500,-16.37
2019-08-16 10:44:58.828125,-21.23
2019-08-16 10:44:58.843750,-21.68
2019-08-16 10:44:58.859375,-18.48
2019-08-16 10:44:58.875000,-13.6
2019-08-16 10:44:58.890625,-9.16
2019-08-16 10:44:58.906250,-6.3
2019-08-16 10:44:58.921875,-4.64
2019-08-16 10:44:58.937500,-2.92
2019-08-16 10:44:58.953125,0.05
2019-08-16 10:44:58.968750,4.33
2019-08-16 10:44:58.984375,8.61
2019-08-16 10:44:59.000000,10.96
2019-08-16 10:44:59.015625,10.06
2019-08-16 10:44:59.031250,6.15
2019-08-16 10:44:59.046875,1.05
2019-08-16 10:44:59.062500,-2.68
2019-08-16 10:44:59.078125,-3.26
2019-08-16 10:44:59.093750,-0.48
2019-08-16 10:44:59.109375,4.27
2019-08-16 10:44:59.125000,8.59
2019-08-16 10:44:59.140625,10.49
2019-08-16 10:44:59.156250,9.33
2019-08-16 10:44:59.171875,6.02
2019-08-16 10:44:59.187500,2.62
2019-08-16 10:44:59.203125,1.14
2019-08-16 10:44:59.218750,2.27
2019-08-16 10:44:59.234375,4.96
2019-08-16 10:44:59.250000,6.95
2019-08-16 10:44:59.265625,6.07
2019-08-16 10:44:59.281250,1.71
2019-08-16 10:44:59.296875,-4.54
2019-08-16 10:44:59.312500,-9.78
2019-08-16 10:44:59.328125,-11.41
2019-08-16 10:44:59.343750,-8.75
2019-08-16 10:44:59.359375,-3.55
2019-08-16 10:44:59.375000,0.97
2019-08-16 10:44:59.390625,2.2
2019-08-16 10:44:59.406250,-0.51
2019-08-16 10:44:59.421875,-5.31
2019-08-16 10:44:59.437500,-9.04
2019-08-16 10:44:59.453125,-9.14
2019-08-16 10:44:59.468750,-5.15
2019-08-16 10:44:59.484375,1.09
2019-08-16 10:44:59.500000,6.43
2019-08-16 10:44:59.515625,8.28
2019-08-16 10:44:59.531250,6.04
2019-08-16 10:44:59.546875,1.41
2019-08-16 10:44:59.562500,-2.7
2019-08-16 10:44:59.578125,-3.85
2019-08-16 10:44:59.593750,-1.44
2019-08-16 10:44:59.609375,3.07
2019-08-16 10:44:59.625000,7.12
2019-08-16 10:44:59.640625,8.73
2019-08-16 10:44:59.656250,7.54
2019-08-16 10:44:59.671875,4.99
2019-08-16 10:44:59.687500,3.28
2019-08-16 10:44:59.703125,4.03
2019-08-16 10:44:59.718750,7.41
2019-08-16 10:44:59.734375,12.16
2019-08-16 10:44:59.750000,16.35
2019-08-16 10:44:59.765625,18.44
2019-08-16 10:44:59.781250,17.8
2019-08-16 10:44:59.796875,14.94
2019-08-16 10:44:59.812500,11.22
2019-08-16 10:44:59.828125,8.17
2019-08-16 10:44:59.843750,7.02
2019-08-16 10:44:59.859375,8.02
2019-08-16 10:44:59.875000,10.32
2019-08-16 10:44:59.890625,12.32
2019-08-16 10:44:59.906250,12.56
2019-08-16 10:44:59.921875,10.6
2019-08-16 10:44:59.937500,7.28
2019-08-16 10:44:59.953125,4.25
2019-08-16 10:44:59.968750,2.8
2019-08-16 10:44:59.984375,2.89
2019-08-16 10:45:00.000000,3.25
2019-08-16 10:45:00.015625,2.27
2019-08-16 10:45:00.031250,-0.72
2019-08-16 10:45:00.046875,-4.69
2019-08-16 10:45:00.062500,-7.49
2019-08-16 10:45:00.078125,-7.07
2019-08-16 10:45:00.093750,-2.81
2019-08-16 10:45:00.109375,4.06
2019-08-16 10:45:00.125000,10.87
2019-08-16 10:45:00.140625,15.06
2019-08-16 10:45:00.156250,15.2
2019-08-16 10:45:00.171875,11.57
2019-08-16 10:45:00.187500,6.07
2019-08-16 10:45:00.203125,1.07
2019-08-16 10:45:00.218750,-1.81
2019-08-16 10:45:00.234375,-2.43
2019-08-16 10:45:00.250000,-2.24
2019-08-16 10:45:00.265625,-3.37
2019-08-16 10:45:00.281250,-7.05
2019-08-16 10:45:00.296875,-12.63
2019-08-16 10:45:00.312500,-17.72
2019-08-16 10:45:00.328125,-19.45
2019-08-16 10:45:00.343750,-16.31
2019-08-16 10:45:00.359375,-9.43
2019-08-16 10:45:00.375000,-1.94
2019-08-16 10:45:00.390625,2.64
2019-08-16 10:45:00.406250,2.5
2019-08-16 10:45:00.421875,-1.38
2019-08-16 10:45:00.437500,-5.95
2019-08-16 10:45:00.453125,-8.09
2019-08-16 10:45:00.468750,-6.52
2019-08-16 10:45:00.484375,-2.38
2019-08-16 10:45:00.500000,1.51
2019-08-16 10:45:00.515625,2.58
2019-08-16 10:45:00.531250,0.19
2019-08-16 10:45:00.546875,-3.87
2019-08-16 10:45:00.562500,-6.49
2019-08-16 10:45:00.578125,-5.02
2019-08-16 10:45:00.593750,1.07
2019-08-16 10:45:00.609375,9.84
2019-08-16 10:45:00.625000,17.63
2019-08-16 10:45:00.640625,21.14
2019-08-16 10:45:00.656250,19.18
2019-08-16 10:45:00.671875,13.32
2019-08-16 10:45:00.687500,7.16
2019-08-16 10:45:00.703125,4.29
2019-08-16 10:45:00.718750,6.33
2019-08-16 10:45:00.734375,12.05
2019-08-16 10:45:00.750000,17.97
2019-08-16 10:45:00.765625,20.27
2019-08-16 10:45:00.781250,16.97
2019-08-16 10:45:00.796875,8.97
2019-08-16 10:45:00.812500,-0.5
2019-08-16 10:45:00.828125,-7.64
2019-08-16 10:45:00.843750,-10.21
2019-08-16 10:45:00.859375,-8.7
2019-08-16 10:45:00.875000,-5.72
2019-08-16 10:45:00.890625,-4.36
2019-08-16 10:45:00.906250,-6.29
2019-08-16 10:45:00.921875,-10.73
2019-08-16 10:45:00.937500,-15.04
2019-08-16 10:45:00.953125,-16.43
2019-08-16 10:45:00.968750,-13.75
2019-08-16 10:45:00.984375,-8.28
2019-08-16 10:45:01.000000,-3.05
2019-08-16 10:45:01.015625,-0.99
2019-08-16 10:45:01.031250,-2.99
2019-08-16 10:45:01.046875,-7.29
2019-08-16 10:45:01.062500,-10.6
2019-08-16 10:45:01.078125,-10.05
2019-08-16 10:45:01.093750,-5.22
2019-08-16 10:45:01.109375,1.58
2019-08-16 10:45:01.125000,6.74
2019-08-16 10:45:01.140625,7.63
2019-08-16 10:45:01.156250,4.3
2019-08-16 10:45:01.171875,-0.36
2019-08-16 10:45:01.187500,-2.33
2019-08-16 10:45:01.203125,1.01
2019-08-16 10:45:01.218750,9.11
2019-08-16 10:45:01.234375,18.4
2019-08-16 10:45:01.250000,24.03
2019-08-16 10:45:01.265625,22.48
2019-08-16 10:45:01.281250,13.58
2019-08-16 10:45:01.296875,0.77
2019-08-16 10:45:01.312500,-10.44
2019-08-16 10:45:01.328125,-14.72
2019-08-16 10:45:01.343750,-9.27
2019-08-16 10:45:01.359375,4.85
2019-08-16 10:45:01.375000,23.05
2019-08-16 10:45:01.390625,38.46
2019-08-16 10:45:01.406250,44.5
2019-08-16 10:45:01.421875,37.21
2019-08-16 10:45:01.437500,16.58
2019-08-16 10:45:01.453125,-13.48
2019-08-16 10:45:01.468750,-46.45
2019-08-16 10:45:01.484375,-75.38
2019-08-16 10:45:01.500000,-94.7
2019-08-16 10:45:01.515625,-101.37
2019-08-16 10:45:01.531250,-94.72
2019-08-16 10:45:01.546875,-76.11
2019-08-16 10:45:01.562500,-48.51
2019-08-16 10:45:01.578125,-16.35
2019-08-16 10:45:01.593750,14.6
2019-08-16 10:45:01.609375,38.19
2019-08-16 10:45:01.625000,49.52
2019-08-16 10:45:01.640625,46.54
2019-08-16 10:45:01.656250,31.2
2019-08-16 10:45:01.671875,8.84
2019-08-16 10:45:01.687500,-13.48
2019-08-16 10:45:01.703125,-29.65
2019-08-16 10:45:01.718750,-36.55
2019-08-16 10:45:01.734375,-34.81
2019-08-16 10:45:01.750000,-27.96
2019-08-16 10:45:01.765625,-20.37
2019-08-16 10:45:01.781250,-15.15
2019-08-16 10:45:01.796875,-12.54
2019-08-16 10:45:01.812500,-10.44
2019-08-16 10:45:01.828125,-5.75
2019-08-16 10:45:01.843750,3.4
2019-08-16 10:45:01.859375,16.2
2019-08-16 10:45:01.875000,29.38
2019-08-16 10:45:01.890625,38.62
2019-08-16 10:45:01.906250,40.75
2019-08-16 10:45:01.921875,35.38
2019-08-16 10:45:01.937500,24.88
2019-08-16 10:45:01.953125,12.95
2019-08-16 10:45:01.968750,2.66
2019-08-16 10:45:01.984375,-4.7
2019-08-16 10:45:02.000000,-9.51
2019-08-16 10:45:02.015625,-12.71
2019-08-16 10:45:02.031250,-14.49
2019-08-16 10:45:02.046875,-13.89
2019-08-16 10:45:02.062500,-9.41
2019-08-16 10:45:02.078125,-0.16
2019-08-16 10:45:02.093750,12.77
2019-08-16 10:45:02.109375,26.23
2019-08-16 10:45:02.125000,36.05
2019-08-16 10:45:02.140625,38.66
2019-08-16 10:45:02.156250,33.06
2019-08-16 10:45:02.171875,21.39
2019-08-16 10:45:02.187500,8.08
2019-08-16 10:45:02.203125,-2.09
2019-08-16 10:45:02.218750,-6.25
2019-08-16 10:45:02.234375,-4.54
2019-08-16 10:45:02.250000,0.23
2019-08-16 10:45:02.265625,4.61
2019-08-16 10:45:02.281250,6.39
2019-08-16 10:45:02.296875,5.64
2019-08-16 10:45:02.312500,4.19
2019-08-16 10:45:02.328125,3.92
2019-08-16 10:45:02.343750,5.36
2019-08-16 10:45:02.359375,7.14
2019-08-16 10:45:02.375000,6.88
2019-08-16 10:45:02.390625,2.77
2019-08-16 10:45:02.406250,-5.12
2019-08-16 10:45:02.421875,-14.68
2019-08-16 10:45:02.437500,-22.74
2019-08-16 10:45:02.453125,-26.53
2019-08-16 10:45:02.468750,-25.27
2019-08-16 10:45:02.484375,-20.12
2019-08-16 10:45:02.500000,-13.46
2019-08-16 10:45:02.515625,-7.55
2019-08-16 10:45:02.531250,-3.37
2019-08-16 10:45:02.546875,-0.32
2019-08-16 10:45:02.562500,3.03
2019-08-16 10:45:02.578125,8.11
2019-08-16 10:45:02.593750,15.19
2019-08-16 10:45:02.609375,23.07
2019-08-16 10:45:02.625000,29.56
2019-08-16 10:45:02.640625,32.33
2019-08-16 10:45:02.656250,30.03
2019-08-16 10:45:02.671875,23.02
2019-08-16 10:45:02.687500,13.34
2019-08-16 10:45:02.703125,3.79
2019-08-16 10:45:02.718750,-3.2
2019-08-16 10:45:02.734375,-6.61
2019-08-16 10:45:02.750000,-7.22
2019-08-16 10:45:02.765625,-6.74
2019-08-16 10:45:02.781250,-6.66
2019-08-16 10:45:02.796875,-7.1
2019-08-16 10:45:02.812500,-6.64
2019-08-16 10:45:02.828125,-3.44
2019-08-16 10:45:02.843750,3.13
2019-08-16 10:45:02.859375,11.49
2019-08-16 10:45:02.875000,18.26
2019-08-16 10:45:02.890625,20.09
2019-08-16 10:45:02.906250,15.73
2019-08-16 10:45:02.921875,6.88
2019-08-16 10:45:02.937500,-2.57
2019-08-16 10:45:02.953125,-8.59
2019-08-16 10:45:02.968750,-9.2
2019-08-16 10:45:02.984375,-5.24
2019-08-16 10:45:03.000000,0.4
2019-08-16 10:45:03.015625,4.49
2019-08-16 10:45:03.031250,5.06
2019-08-16 10:45:03.046875,2.31
2019-08-16 10:45:03.062500,-1.91
2019-08-16 10:45:03.078125,-5.26
2019-08-16 10:45:03.093750,-6.15
2019-08-16 10:45:03.109375,-4.48
2019-08-16 10:45:03.125000,-1.82
2019-08-16 10:45:03.140625,-0.37
2019-08-16 10:45:03.156250,-1.99
2019-08-16 10:45:03.171875,-7.02
2019-08-16 10:45:03.187500,-13.66
2019-08-16 10:45:03.203125,-18.67
2019-08-16 10:45:03.218750,-19.09
2019-08-16 10:45:03.234375,-13.92
2019-08-16 10:45:03.250000,-5.02
2019-08-16 10:45:03.265625,3.64
2019-08-16 10:45:03.281250,8.15
2019-08-16 10:45:03.296875,7.05
2019-08-16 10:45:03.312500,2.14
2019-08-16 10:45:03.328125,-2.51
2019-08-16 10:45:03.343750,-3.17
2019-08-16 10:45:03.359375,1.26
2019-08-16 10:45:03.375000,8.64
2019-08-16 10:45:03.390625,15.08
2019-08-16 10:45:03.406250,17.44
2019-08-16 10:45:03.421875,15.26
2019-08-16 10:45:03.437500,10.96
2019-08-16 10:45:03.453125,8.22
2019-08-16 10:45:03.468750,9.53
2019-08-16 10:45:03.484375,14.55
2019-08-16 10:45:03.500000,20.26
2019-08-16 10:45:03.515625,22.81
2019-08-16 10:45:03.531250,19.67
2019-08-16 10:45:03.546875,11.37
2019-08-16 10:45:03.562500,1.42
2019-08-16 10:45:03.578125,-5.65
2019-08-16 10:45:03.593750,-6.52
2019-08-16 10:45:03.609375,-0.83
2019-08-16 10:45:03.625000,8.61
2019-08-16 10:45:03.640625,17.31
2019-08-16 10:45:03.656250,21.41
2019-08-16 10:45:03.671875,19.36
2019-08-16 10:45:03.687500,12.49
2019-08-16 10:45:03.703125,4.0
2019-08-16 10:45:03.718750,-3.01
2019-08-16 10:45:03.734375,-7.01
2019-08-16 10:45:03.750000,-8.59
2019-08-16 10:45:03.765625,-9.68
2019-08-16 10:45:03.781250,-12.02
2019-08-16 10:45:03.796875,-15.91
2019-08-16 10:45:03.812500,-19.94
2019-08-16 10:45:03.828125,-21.73
2019-08-16 10:45:03.843750,-19.45
2019-08-16 10:45:03.859375,-12.99
2019-08-16 10:45:03.875000,-4.39
2019-08-16 10:45:03.890625,2.98
2019-08-16 10:45:03.906250,6.17
2019-08-16 10:45:03.921875,4.25
2019-08-16 10:45:03.937500,-1.11
2019-08-16 10:45:03.953125,-6.44
2019-08-16 10:45:03.968750,-8.41
2019-08-16 10:45:03.984375,-5.86
2019-08-16 10:45:04.000000,-0.65
2019-08-16 10:45:04.015625,3.5
2019-08-16 10:45:04.031250,3.14
2019-08-16 10:45:04.046875,-2.64
2019-08-16 10:45:04.062500,-11.48
2019-08-16 10:45:04.078125,-18.79
2019-08-16 10:45:04.093750,-20.42
2019-08-16 10:45:04.109375,-14.91
2019-08-16 10:45:04.125000,-4.28
2019-08-16 10:45:04.140625,6.92
2019-08-16 10:45:04.156250,14.14
2019-08-16 10:45:04.171875,15.12
2019-08-16 10:45:04.187500,10.73
2019-08-16 10:45:04.203125,4.29
2019-08-16 10:45:04.218750,-0.31
2019-08-16 10:45:04.234375,-0.7
2019-08-16 10:45:04.250000,3.05
2019-08-16 10:45:04.265625,8.83
2019-08-16 10:45:04.281250,13.93
2019-08-16 10:45:04.296875,16.51
2019-08-16 10:45:04.312500,16.46
2019-08-16 10:45:04.328125,14.99
2019-08-16 10:45:04.343750,13.55
2019-08-16 10:45:04.359375,12.82
2019-08-16 10:45:04.375000,12.15
2019-08-16 10:45:04.390625,10.23
2019-08-16 10:45:04.406250,6.16
2019-08-16 10:45:04.421875,0.44
2019-08-16 10:45:04.437500,-4.94
2019-08-16 10:45:04.453125,-7.4
2019-08-16 10:45:04.468750,-5.2
2019-08-16 10:45:04.484375,1.29
2019-08-16 10:45:04.500000,9.49
2019-08-16 10:45:04.515625,15.58
2019-08-16 10:45:04.531250,16.42
2019-08-16 10:45:04.546875,11.18
2019-08-16 10:45:04.562500,1.91
2019-08-16 10:45:04.578125,-7.3
2019-08-16 10:45:04.593750,-12.41
2019-08-16 10:45:04.609375,-11.43
2019-08-16 10:45:04.625000,-5.55
2019-08-16 10:45:04.640625,1.43
2019-08-16 10:45:04.656250,5.16
2019-08-16 10:45:04.671875,3.23
2019-08-16 10:45:04.687500,-3.58
2019-08-16 10:45:04.703125,-11.8
2019-08-16 10:45:04.718750,-17.42
2019-08-16 10:45:04.734375,-18.55
2019-08-16 10:45:04.750000,-16.46
2019-08-16 10:45:04.765625,-14.7
2019-08-16 10:45:04.781250,-16.59
2019-08-16 10:45:04.796875,-22.92
2019-08-16 10:45:04.812500,-31.01
2019-08-16 10:45:04.828125,-36.26
2019-08-16 10:45:04.843750,-34.85
2019-08-16 10:45:04.859375,-25.89
2019-08-16 10:45:04.875000,-12.01
2019-08-16 10:45:04.890625,2.06
2019-08-16 10:45:04.906250,11.88
2019-08-16 10:45:04.921875,15.07
2019-08-16 10:45:04.937500,11.85
2019-08-16 10:45:04.953125,4.39
2019-08-16 10:45:04.968750,-4.48
2019-08-16 10:45:04.984375,-12.62
2019-08-16 10:45:05.000000,-18.85
2019-08-16 10:45:05.015625,-22.88
2019-08-16 10:45:05.031250,-24.96
2019-08-16 10:45:05.046875,-25.49
2019-08-16 10:45:05.062500,-24.78
2019-08-16 10:45:05.078125,-23.01
2019-08-16 10:45:05.093750,-20.41
2019-08-16 10:45:05.109375,-17.4
2019-08-16 10:45:05.125000,-14.7
2019-08-16 10:45:05.140625,-13.44
2019-08-16 10:45:05.156250,-14.62
2019-08-16 10:45:05.171875,-18.53
2019-08-16 10:45:05.187500,-24.26
2019-08-16 10:45:05.203125,-29.83
2019-08-16 10:45:05.218750,-32.93
2019-08-16 10:45:05.234375,-32.29
2019-08-16 10:45:05.250000,-28.5
2019-08-16 10:45:05.265625,-23.86
2019-08-16 10:45:05.281250,-21.04
2019-08-16 10:45:05.296875,-21.34
2019-08-16 10:45:05.312500,-23.67
2019-08-16 10:45:05.328125,-24.62
2019-08-16 10:45:05.343750,-20.5
2019-08-16 10:45:05.359375,-9.61
2019-08-16 10:45:05.375000,6.1
2019-08-16 10:45:05.390625,21.6
2019-08-16 10:45:05.406250,31.17
2019-08-16 10:45:05.421875,31.49
2019-08-16 10:45:05.437500,23.54
2019-08-16 10:45:05.453125,12.08
2019-08-16 10:45:05.468750,3.2
2019-08-16 10:45:05.484375,1.12
2019-08-16 10:45:05.500000,6.33
2019-08-16 10:45:05.515625,15.77
2019-08-16 10:45:05.531250,24.97
2019-08-16 10:45:05.546875,30.51
2019-08-16 10:45:05.562500,31.6
2019-08-16 10:45:05.578125,29.97
2019-08-16 10:45:05.593750,28.31
2019-08-16 10:45:05.609375,28.42
2019-08-16 10:45:05.625000,30.12
2019-08-16 10:45:05.640625,31.5
2019-08-16 10:45:05.656250,30.23
2019-08-16 10:45:05.671875,25.25
2019-08-16 10:45:05.687500,17.63
2019-08-16 10:45:05.703125,10.24
2019-08-16 10:45:05.718750,6.21
2019-08-16 10:45:05.734375,7.33
2019-08-16 10:45:05.750000,12.94
2019-08-16 10:45:05.765625,20.06
2019-08-16 10:45:05.781250,24.91
2019-08-16 10:45:05.796875,24.81
2019-08-16 10:45:05.812500,19.41
2019-08-16 10:45:05.828125,10.89
2019-08-16 10:45:05.843750,2.64
2019-08-16 10:45:05.859375,-2.45
2019-08-16 10:45:05.875000,-3.49
2019-08-16 10:45:05.890625,-1.77
2019-08-16 10:45:05.906250,0.22
2019-08-16 10:45:05.921875,0.26
2019-08-16 10:45:05.937500,-1.98
2019-08-16 10:45:05.953125,-4.8
2019-08-16 10:45:05.968750,-5.34
2019-08-16 10:45:05.984375,-1.38
2019-08-16 10:45:06.000000,7.14
2019-08-16 10:45:06.015625,17.67
2019-08-16 10:45:06.031250,26.25
2019-08-16 10:45:06.046875,29.88
2019-08-16 10:45:06.062500,28.2
2019-08-16 10:45:06.078125,23.76
2019-08-16 10:45:06.093750,20.26
2019-08-16 10:45:06.109375,20.13
2019-08-16 10:45:06.125000,22.46
2019-08-16 10:45:06.140625,23.4
2019-08-16 10:45:06.156250,18.67
2019-08-16 10:45:06.171875,6.47
2019-08-16 10:45:06.187500,-10.7
2019-08-16 10:45:06.203125,-26.65
2019-08-16 10:45:06.218750,-34.52
2019-08-16 10:45:06.234375,-30.22
2019-08-16 10:45:06.250000,-14.48
2019-08-16 10:45:06.265625,7.62
2019-08-16 10:45:06.281250,29.17
2019-08-16 10:45:06.296875,44.61
2019-08-16 10:45:06.312500,51.38
2019-08-16 10:45:06.328125,49.77
2019-08-16 10:45:06.343750,41.69
2019-08-16 10:45:06.359375,29.35
2019-08-16 10:45:06.375000,14.54
2019-08-16 10:45:06.390625,-1.13
2019-08-16 10:45:06.406250,-15.97
2019-08-16 10:45:06.421875,-28.36
2019-08-16 10:45:06.437500,-36.93
2019-08-16 10:45:06.453125,-41.27
2019-08-16 10:45:06.468750,-41.97
2019-08-16 10:45:06.484375,-40.15
2019-08-16 10:45:06.500000,-36.92
2019-08-16 10:45:06.515625,-32.97
2019-08-16 10:45:06.531250,-28.6
2019-08-16 10:45:06.546875,-23.77
2019-08-16 10:45:06.562500,-18.23
2019-08-16 10:45:06.578125,-11.55
2019-08-16 10:45:06.593750,-3.17
2019-08-16 10:45:06.609375,7.25
2019-08-16 10:45:06.625000,18.96
2019-08-16 10:45:06.640625,29.67
2019-08-16 10:45:06.656250,36.31
2019-08-16 10:45:06.671875,36.05
2019-08-16 10:45:06.687500,27.97
2019-08-16 10:45:06.703125,13.72
2019-08-16 10:45:06.718750,-3.04
2019-08-16 10:45:06.734375,-17.98
2019-08-16 10:45:06.750000,-27.58
2019-08-16 10:45:06.765625,-30.28
2019-08-16 10:45:06.781250,-26.53
2019-08-16 10:45:06.796875,-18.04
2019-08-16 10:45:06.812500,-6.93
2019-08-16 10:45:06.828125,4.92
2019-08-16 10:45:06.843750,15.97
2019-08-16 10:45:06.859375,24.59
2019-08-16 10:45:06.875000,28.63
2019-08-16 10:45:06.890625,26.11
2019-08-16 10:45:06.906250,16.0
2019-08-16 10:45:06.921875,-0.61
2019-08-16 10:45:06.937500,-19.91
2019-08-16 10:45:06.953125,-36.62
2019-08-16 10:45:06.968750,-46.27
2019-08-16 10:45:06.984375,-47.45
2019-08-16 10:45:07.000000,-42.67
2019-08-16 10:45:07.015625,-36.86
2019-08-16 10:45:07.031250,-34.35
2019-08-16 10:45:07.046875,-35.96
2019-08-16 10:45:07.062500,-38.28
2019-08-16 10:45:07.078125,-35.87
2019-08-16 10:45:07.093750,-24.67
2019-08-16 10:45:07.109375,-4.76
2019-08-16 10:45:07.125000,19.22
2019-08-16 10:45:07.140625,40.53
2019-08-16 10:45:07.156250,53.86
2019-08-16 10:45:07.171875,57.59
2019-08-16 10:45:07.187500,53.87
2019-08-16 10:45:07.203125,46.55
2019-08-16 10:45:07.218750,38.31
2019-08-16 10:45:07.234375,29.29
2019-08-16 10:45:07.250000,17.79
2019-08-16 10:45:07.265625,2.16
2019-08-16 10:45:07.281250,-16.97
2019-08-16 10:45:07.296875,-36.1
2019-08-16 10:45:07.312500,-50.11
2019-08-16 10:45:07.328125,-54.7
2019-08-16 10:45:07.343750,-48.49
2019-08-16 10:45:07.359375,-33.66
2019-08-16 10:45:07.375000,-15.08
2019-08-16 10:45:07.390625,2.18
2019-08-16 10:45:07.406250,14.65
2019-08-16 10:45:07.421875,21.33
2019-08-16 10:45:07.437500,23.51
2019-08-16 10:45:07.453125,23.35
2019-08-16 10:45:07.468750,22.79
2019-08-16 10:45:07.484375,22.75
2019-08-16 10:45:07.500000,23.05
2019-08-16 10:45:07.515625,22.68
2019-08-16 10:45:07.531250,20.58
2019-08-16 10:45:07.546875,16.3
2019-08-16 10:45:07.562500,10.64
2019-08-16 10:45:07.578125,5.6
2019-08-16 10:45:07.593750,3.57
2019-08-16 10:45:07.609375,6.11
2019-08-16 10:45:07.625000,12.65
2019-08-16 10:45:07.640625,20.33
2019-08-16 10:45:07.656250,25.0
2019-08-16 10:45:07.671875,23.11
2019-08-16 10:45:07.687500,13.64
2019-08-16 10:45:07.703125,-1.01
2019-08-16 10:45:07.718750,-16.16
2019-08-16 10:45:07.734375,-26.86
2019-08-16 10:45:07.750000,-30.17
2019-08-16 10:45:07.765625,-26.37
2019-08-16 10:45:07.781250,-18.35
2019-08-16 10:45:07.796875,-9.82
2019-08-16 10:45:07.812500,-3.3
2019-08-16 10:45:07.828125,1.03
2019-08-16 10:45:07.843750,5.02
2019-08-16 10:45:07.859375,11.02
2019-08-16 10:45:07.875000,19.62
2019-08-16 10:45:07.890625,28.82
2019-08-16 10:45:07.906250,34.48
2019-08-16 10:45:07.921875,32.41
2019-08-16 10:45:07.937500,21.25
2019-08-16 10:45:07.953125,3.74
2019-08-16 10:45:07.968750,-14.2
2019-08-16 10:45:07.984375,-26.26
2019-08-16 10:45:08.000000,-29.01
2019-08-16 10:45:08.015625,-23.66
2019-08-16 10:45:08.031250,-15.01
2019-08-16 10:45:08.046875,-8.3
2019-08-16 10:45:08.062500,-6.08
2019-08-16 10:45:08.078125,-7.06
2019-08-16 10:45:08.093750,-7.33
2019-08-16 10:45:08.109375,-3.6
2019-08-16 10:45:08.125000,4.3
2019-08-16 10:45:08.140625,13.1
2019-08-16 10:45:08.156250,18.17
2019-08-16 10:45:08.171875,16.55
2019-08-16 10:45:08.187500,9.01
2019-08-16 10:45:08.203125,-0.35
2019-08-16 10:45:08.218750,-6.47
2019-08-16 10:45:08.234375,-6.16
2019-08-16 10:45:08.250000,0.27
2019-08-16 10:45:08.265625,9.52
2019-08-16 10:45:08.281250,17.29
2019-08-16 10:45:08.296875,20.68
2019-08-16 10:45:08.312500,19.52
2019-08-16 10:45:08.328125,16.02
2019-08-16 10:45:08.343750,13.3
2019-08-16 10:45:08.359375,13.6
2019-08-16 10:45:08.375000,16.98
2019-08-16 10:45:08.390625,21.46
2019-08-16 10:45:08.406250,24.13
2019-08-16 10:45:08.421875,22.78
2019-08-16 10:45:08.437500,17.31
2019-08-16 10:45:08.453125,9.94
2019-08-16 10:45:08.468750,4.05
2019-08-16 10:45:08.484375,2.25
2019-08-16 10:45:08.500000,4.86
2019-08-16 10:45:08.515625,9.64
2019-08-16 10:45:08.531250,13.02
2019-08-16 10:45:08.546875,12.29
2019-08-16 10:45:08.562500,7.1
2019-08-16 10:45:08.578125,-0.41
2019-08-16 10:45:08.593750,-6.89
2019-08-16 10:45:08.609375,-9.89
2019-08-16 10:45:08.625000,-9.08
2019-08-16 10:45:08.640625,-6.15
2019-08-16 10:45:08.656250,-3.65
2019-08-16 10:45:08.671875,-3.17
2019-08-16 10:45:08.687500,-4.59
2019-08-16 10:45:08.703125,-6.45
2019-08-16 10:45:08.718750,-7.09
2019-08-16 10:45:08.734375,-5.84
2019-08-16 10:45:08.750000,-3.43
2019-08-16 10:45:08.765625,-1.48
2019-08-16 10:45:08.781250,-1.39
2019-08-16 10:45:08.796875,-3.55
2019-08-16 10:45:08.812500,-7.04
2019-08-16 10:45:08.828125,-9.91
2019-08-16 10:45:08.843750,-10.24
2019-08-16 10:45:08.859375,-7.17
2019-08-16 10:45:08.875000,-1.42
2019-08-16 10:45:08.890625,4.77
2019-08-16 10:45:08.906250,8.68
2019-08-16 10:45:08.921875,8.48
2019-08-16 10:45:08.937500,4.22
2019-08-16 10:45:08.953125,-2.06
2019-08-16 10:45:08.968750,-7.27
2019-08-16 10:45:08.984375,-8.95
2019-08-16 10:45:09.000000,-6.5
2019-08-16 10:45:09.015625,-1.52
2019-08-16 10:45:09.031250,3.13
2019-08-16 10:45:09.046875,4.89
2019-08-16 10:45:09.062500,2.97
2019-08-16 10:45:09.078125,-1.41
2019-08-16 10:45:09.093750,-5.76
2019-08-16 10:45:09.109375,-7.8
2019-08-16 10:45:09.125000,-6.73
2019-08-16 10:45:09.140625,-3.7
2019-08-16 10:45:09.156250,-1.03
2019-08-16 10:45:09.171875,-0.79
2019-08-16 10:45:09.187500,-3.52
2019-08-16 10:45:09.203125,-7.99
2019-08-16 10:45:09.218750,-11.73
2019-08-16 10:45:09.234375,-12.58
2019-08-16 10:45:09.250000,-10.0
2019-08-16 10:45:09.265625,-5.48
2019-08-16 10:45:09.281250,-1.85
2019-08-16 10:45:09.296875,-1.65
2019-08-16 10:45:09.312500,-5.63
2019-08-16 10:45:09.328125,-12.0
2019-08-16 10:45:09.343750,-17.37
2019-08-16 10:45:09.359375,-18.51
2019-08-16 10:45:09.375000,-14.37
2019-08-16 10:45:09.390625,-6.75
2019-08-16 10:45:09.406250,0.66
2019-08-16 10:45:09.421875,4.4
2019-08-16 10:45:09.437500,3.3
2019-08-16 10:45:09.453125,-0.87
2019-08-16 10:45:09.468750,-4.63
2019-08-16 10:45:09.484375,-4.92
2019-08-16 10:45:09.500000,-0.99
2019-08-16 10:45:09.515625,5.14
2019-08-16 10:45:09.531250,9.93
2019-08-16 10:45:09.546875,10.42
2019-08-16 10:45:09.562500,6.01
2019-08-16 10:45:09.578125,-1.24
2019-08-16 10:45:09.593750,-7.63
2019-08-16 10:45:09.609375,-9.86
2019-08-16 10:45:09.625000,-6.72
2019-08-16 10:45:09.640625,0.21
2019-08-16 10:45:09.656250,7.31
2019-08-16 10:45:09.671875,10.91
2019-08-16 10:45:09.687500,9.12
2019-08-16 10:45:09.703125,2.84
2019-08-16 10:45:09.718750,-4.58
2019-08-16 10:45:09.734375,-9.23
2019-08-16 10:45:09.750000,-8.8
2019-08-16 10:45:09.765625,-3.72
2019-08-16 10:45:09.781250,3.09
2019-08-16 10:45:09.796875,7.96
2019-08-16 10:45:09.812500,8.67
2019-08-16 10:45:09.828125,5.63
2019-08-16 10:45:09.843750,1.21
2019-08-16 10:45:09.859375,-1.75
2019-08-16 10:45:09.875000,-2.09
2019-08-16 10:45:09.890625,-1.14
2019-08-16 10:45:09.906250,-1.55
2019-08-16 10:45:09.921875,-5.5
2019-08-16 10:45:09.937500,-12.74
2019-08-16 10:45:09.953125,-20.14
2019-08-16 10:45:09.968750,-23.26
2019-08-16 10:45:09.984375,-18.92
2019-08-16 10:45:10.000000,-7.28
2019-08-16 10:45:10.015625,7.87
2019-08-16 10:45:10.031250,20.89
2019-08-16 10:45:10.046875,27.4
2019-08-16 10:45:10.062500,26.39
2019-08-16 10:45:10.078125,20.51
2019-08-16 10:45:10.093750,14.31
2019-08-16 10:45:10.109375,11.32
2019-08-16 10:45:10.125000,12.08
2019-08-16 10:45:10.140625,14.31
2019-08-16 10:45:10.156250,14.46
2019-08-16 10:45:10.171875,10.23
2019-08-16 10:45:10.187500,2.13
2019-08-16 10:45:10.203125,-6.97
2019-08-16 10:45:10.218750,-13.51
2019-08-16 10:45:10.234375,-15.11
2019-08-16 10:45:10.250000,-11.76
2019-08-16 10:45:10.265625,-5.69
2019-08-16 10:45:10.281250,-0.04
2019-08-16 10:45:10.296875,2.75
2019-08-16 10:45:10.312500,1.86
2019-08-16 10:45:10.328125,-1.4
2019-08-16 10:45:10.343750,-4.52
2019-08-16 10:45:10.359375,-5.0
2019-08-16 10:45:10.375000,-1.77
2019-08-16 10:45:10.390625,3.97
2019-08-16 10:45:10.406250,9.23
2019-08-16 10:45:10.421875,10.81
2019-08-16 10:45:10.437500,7.16
2019-08-16 10:45:10.453125,-0.59
2019-08-16 10:45:10.468750,-8.98
2019-08-16 10:45:10.484375,-14.22
2019-08-16 10:45:10.500000,-14.31
2019-08-16 10:45:10.515625,-10.23
2019-08-16 10:45:10.531250,-5.41
2019-08-16 10:45:10.546875,-3.64
2019-08-16 10:45:10.562500,-6.73
2019-08-16 10:45:10.578125,-13.34
2019-08-16 10:45:10.593750,-19.69
2019-08-16 10:45:10.609375,-21.75
2019-08-16 10:45:10.625000,-17.7
2019-08-16 10:45:10.640625,-8.91
2019-08-16 10:45:10.656250,0.75
2019-08-16 10:45:10.671875,6.93
2019-08-16 10:45:10.687500,7.46
2019-08-16 10:45:10.703125,3.41
2019-08-16 10:45:10.718750,-1.72
2019-08-16 10:45:10.734375,-4.03
2019-08-16 10:45:10.750000,-1.5
2019-08-16 10:45:10.765625,4.61
2019-08-16 10:45:10.781250,10.73
2019-08-16 10:45:10.796875,13.14
2019-08-16 10:45:10.812500,10.08
2019-08-16 10:45:10.828125,2.8
2019-08-16 10:45:10.843750,-5.24
2019-08-16 10:45:10.859375,-10.35
2019-08-16 10:45:10.875000,-10.61
2019-08-16 10:45:10.890625,-6.7
2019-08-16 10:45:10.906250,-1.43
2019-08-16 10:45:10.921875,1.91
2019-08-16 10:45:10.937500,1.43
2019-08-16 10:45:10.953125,-2.44
2019-08-16 10:45:10.968750,-7.37
2019-08-16 10:45:10.984375,-10.44
2019-08-16 10:45:11.000000,-9.95
2019-08-16 10:45:11.015625,-6.33
2019-08-16 10:45:11.031250,-1.9
2019-08-16 10:45:11.046875,0.63
2019-08-16 10:45:11.062500,-0.24
2019-08-16 10:45:11.078125,-3.8
2019-08-16 10:45:11.093750,-7.43
2019-08-16 10:45:11.109375,-8.34
2019-08-16 10:45:11.125000,-5.45
2019-08-16 10:45:11.140625,-0.22
2019-08-16 10:45:11.156250,4.14
2019-08-16 10:45:11.171875,4.31
2019-08-16 10:45:11.187500,-1.0
2019-08-16 10:45:11.203125,-10.29
2019-08-16 10:45:11.218750,-20.02
2019-08-16 10:45:11.234375,-26.26
2019-08-16 10:45:11.250000,-26.52
2019-08-16 10:45:11.265625,-20.87
2019-08-16 10:45:11.281250,-11.82
2019-08-16 10:45:11.296875,-2.78
2019-08-16 10:45:11.312500,3.72
2019-08-16 10:45:11.328125,7.15
2019-08-16 10:45:11.343750,8.98
2019-08-16 10:45:11.359375,11.45
2019-08-16 10:45:11.375000,15.81
2019-08-16 10:45:11.390625,21.08
2019-08-16 10:45:11.406250,24.66
2019-08-16 10:45:11.421875,23.67
2019-08-16 10:45:11.437500,16.92
2019-08-16 10:45:11.453125,6.11
2019-08-16 10:45:11.468750,-4.98
2019-08-16 10:45:11.484375,-12.15
2019-08-16 10:45:11.500000,-13.08
2019-08-16 10:45:11.515625,-8.35
2019-08-16 10:45:11.531250,-1.19
2019-08-16 10:45:11.546875,4.32
2019-08-16 10:45:11.562500,5.13
2019-08-16 10:45:11.578125,0.65
2019-08-16 10:45:11.593750,-7.09
2019-08-16 10:45:11.609375,-14.54
2019-08-16 10:45:11.625000,-18.28
2019-08-16 10:45:11.640625,-16.91
2019-08-16 10:45:11.656250,-11.59
2019-08-16 10:45:11.671875,-5.5
2019-08-16 10:45:11.687500,-2.06
2019-08-16 10:45:11.703125,-2.95
2019-08-16 10:45:11.718750,-7.13
2019-08-16 10:45:11.734375,-11.53
2019-08-16 10:45:11.750000,-12.98
2019-08-16 10:45:11.765625,-10.0
2019-08-16 10:45:11.781250,-3.87
2019-08-16 10:45:11.796875,2.37
2019-08-16 10:45:11.812500,5.9
2019-08-16 10:45:11.828125,5.74
2019-08-16 10:45:11.843750,3.11
2019-08-16 10:45:11.859375,0.45
2019-08-16 10:45:11.875000,-0.34
2019-08-16 10:45:11.890625,0.85
2019-08-16 10:45:11.906250,2.69
2019-08-16 10:45:11.921875,3.35
2019-08-16 10:45:11.937500,1.82
2019-08-16 10:45:11.953125,-1.31
2019-08-16 10:45:11.968750,-4.09
2019-08-16 10:45:11.984375,-4.25
2019-08-16 10:45:12.000000,-0.47
2019-08-16 10:45:12.015625,6.93
2019-08-16 10:45:12.031250,15.85
2019-08-16 10:45:12.046875,23.31
2019-08-16 10:45:12.062500,26.58
2019-08-16 10:45:12.078125,24.62
2019-08-16 10:45:12.093750,18.59
2019-08-16 10:45:12.109375,11.3
2019-08-16 10:45:12.125000,6.06
2019-08-16 10:45:12.140625,4.94
2019-08-16 10:45:12.156250,7.73
2019-08-16 10:45:12.171875,12.28
2019-08-16 10:45:12.187500,15.91
2019-08-16 10:45:12.203125,16.59
2019-08-16 10:45:12.218750,14.34
2019-08-16 10:45:12.234375,10.68
2019-08-16 10:45:12.250000,7.58
2019-08-16 10:45:12.265625,6.15
2019-08-16 10:45:12.281250,5.96
2019-08-16 10:45:12.296875,5.37
2019-08-16 10:45:12.312500,2.87
2019-08-16 10:45:12.328125,-1.6
2019-08-16 10:45:12.343750,-6.43
2019-08-16 10:45:12.359375,-9.1
2019-08-16 10:45:12.375000,-7.7
2019-08-16 10:45:12.390625,-2.42
2019-08-16 10:45:12.406250,4.34
2019-08-16 10:45:12.421875,9.17
2019-08-16 10:45:12.437500,9.44
2019-08-16 10:45:12.453125,4.9
2019-08-16 10:45:12.468750,-2.18
2019-08-16 10:45:12.484375,-8.26
2019-08-16 10:45:12.500000,-10.77
2019-08-16 10:45:12.515625,-9.42
2019-08-16 10:45:12.531250,-6.34
2019-08-16 10:45:12.546875,-4.44
2019-08-16 10:45:12.562500,-5.54
2019-08-16 10:45:12.578125,-9.05
2019-08-16 10:45:12.593750,-12.42
2019-08-16 10:45:12.609375,-12.75
2019-08-16 10:45:12.625000,-8.62
2019-08-16 10:45:12.640625,-1.01
2019-08-16 10:45:12.656250,7.13
2019-08-16 10:45:12.671875,12.58
2019-08-16 10:45:12.687500,13.64
2019-08-16 10:45:12.703125,10.72
2019-08-16 10:45:12.718750,6.25
2019-08-16 10:45:12.734375,3.12
2019-08-16 10:45:12.750000,3.16
2019-08-16 10:45:12.765625,6.34
2019-08-16 10:45:12.781250,10.9
2019-08-16 10:45:12.796875,14.47
2019-08-16 10:45:12.812500,15.26
2019-08-16 10:45:12.828125,13.16
2019-08-16 10:45:12.843750,9.55
2019-08-16 10:45:12.859375,6.4
2019-08-16 10:45:12.875000,5.04
2019-08-16 10:45:12.890625,5.34
2019-08-16 10:45:12.906250,5.76
2019-08-16 10:45:12.921875,4.43
2019-08-16 10:45:12.937500,0.44
2019-08-16 10:45:12.953125,-5.44
2019-08-16 10:45:12.968750,-10.96
2019-08-16 10:45:12.984375,-13.54
2019-08-16 10:45:13.000000,-11.73
2019-08-16 10:45:13.015625,-5.96
2019-08-16 10:45:13.031250,1.41
2019-08-16 10:45:13.046875,7.38
2019-08-16 10:45:13.062500,9.66
2019-08-16 10:45:13.078125,7.74
2019-08-16 10:45:13.093750,2.86
2019-08-16 10:45:13.109375,-2.73
2019-08-16 10:45:13.125000,-6.87
2019-08-16 10:45:13.140625,-8.58
2019-08-16 10:45:13.156250,-8.45
2019-08-16 10:45:13.171875,-8.17
2019-08-16 10:45:13.187500,-9.4
2019-08-16 10:45:13.203125,-12.65
2019-08-16 10:45:13.218750,-16.6
2019-08-16 10:45:13.234375,-18.65
2019-08-16 10:45:13.250000,-16.43
2019-08-16 10:45:13.265625,-9.5
2019-08-16 10:45:13.281250,0.13
2019-08-16 10:45:13.296875,8.66
2019-08-16 10:45:13.312500,12.42
2019-08-16 10:45:13.328125,10.01
2019-08-16 10:45:13.343750,3.08
2019-08-16 10:45:13.359375,-4.42
2019-08-16 10:45:13.375000,-8.68
2019-08-16 10:45:13.390625,-7.95
2019-08-16 10:45:13.406250,-3.65
2019-08-16 10:45:13.421875,0.73
2019-08-16 10:45:13.437500,1.94
2019-08-16 10:45:13.453125,-0.94
2019-08-16 10:45:13.468750,-5.86
2019-08-16 10:45:13.484375,-9.26
2019-08-16 10:45:13.500000,-8.22
2019-08-16 10:45:13.515625,-2.31
2019-08-16 10:45:13.531250,6.03
2019-08-16 10:45:13.546875,13.0
2019-08-16 10:45:13.562500,15.7
2019-08-16 10:45:13.578125,13.73
2019-08-16 10:45:13.593750,9.27
2019-08-16 10:45:13.609375,5.65
2019-08-16 10:45:13.625000,5.31
2019-08-16 10:45:13.640625,8.18
2019-08-16 10:45:13.656250,11.82
2019-08-16 10:45:13.671875,12.93
2019-08-16 10:45:13.687500,9.27
2019-08-16 10:45:13.703125,1.01
2019-08-16 10:45:13.718750,-9.08
2019-08-16 10:45:13.734375,-17.09
2019-08-16 10:45:13.750000,-19.86
2019-08-16 10:45:13.765625,-16.74
2019-08-16 10:45:13.781250,-9.92
2019-08-16 10:45:13.796875,-3.36
2019-08-16 10:45:13.812500,-0.78
2019-08-16 10:45:13.828125,-3.57
2019-08-16 10:45:13.843750,-10.01
2019-08-16 10:45:13.859375,-16.19
2019-08-16 10:45:13.875000,-18.24
2019-08-16 10:45:13.890625,-14.42
2019-08-16 10:45:13.906250,-6.2
2019-08-16 10:45:13.921875,2.42
2019-08-16 10:45:13.937500,7.29
2019-08-16 10:45:13.953125,6.29
2019-08-16 10:45:13.968750,0.52
2019-08-16 10:45:13.984375,-6.4
2019-08-16 10:45:14.000000,-10.4
2019-08-16 10:45:14.015625,-9.32
2019-08-16 10:45:14.031250,-3.98
2019-08-16 10:45:14.046875,2.43
2019-08-16 10:45:14.062500,6.28
2019-08-16 10:45:14.078125,5.62
2019-08-16 10:45:14.093750,1.17
2019-08-16 10:45:14.109375,-4.26
2019-08-16 10:45:14.125000,-7.36
2019-08-16 10:45:14.140625,-6.42
2019-08-16 10:45:14.156250,-2.18
2019-08-16 10:45:14.171875,2.58
2019-08-16 10:45:14.187500,4.84
2019-08-16 10:45:14.203125,2.92
2019-08-16 10:45:14.218750,-2.3
2019-08-16 10:45:14.234375,-7.72
2019-08-16 10:45:14.250000,-9.92
2019-08-16 10:45:14.265625,-7.0
2019-08-16 10:45:14.281250,0.14
2019-08-16 10:45:14.296875,8.23
2019-08-16 10:45:14.312500,13.25
2019-08-16 10:45:14.328125,12.85
2019-08-16 10:45:14.343750,7.62
2019-08-16 10:45:14.359375,0.91
2019-08-16 10:45:14.375000,-3.22
2019-08-16 10:45:14.390625,-2.35
2019-08-16 10:45:14.406250,2.73
2019-08-16 10:45:14.421875,8.48
2019-08-16 10:45:14.437500,10.76
2019-08-16 10:45:14.453125,7.4
2019-08-16 10:45:14.468750,-0.41
2019-08-16 10:45:14.484375,-8.77
2019-08-16 10:45:14.500000,-13.37
2019-08-16 10:45:14.515625,-12.07
2019-08-16 10:45:14.531250,-6.07
2019-08-16 10:45:14.546875,1.04
2019-08-16 10:45:14.562500,5.5
2019-08-16 10:45:14.578125,5.6
2019-08-16 10:45:14.593750,2.45
2019-08-16 10:45:14.609375,-1.07
2019-08-16 10:45:14.625000,-2.18
2019-08-16 10:45:14.640625,0.01
2019-08-16 10:45:14.656250,4.33
2019-08-16 10:45:14.671875,8.42
2019-08-16 10:45:14.687500,10.43
2019-08-16 10:45:14.703125,10.0
2019-08-16 10:45:14.718750,8.21
2019-08-16 10:45:14.734375,6.76
2019-08-16 10:45:14.750000,6.83
2019-08-16 10:45:14.765625,8.23
2019-08-16 10:45:14.781250,9.66
2019-08-16 10:45:14.796875,9.36
2019-08-16 10:45:14.812500,6.27
2019-08-16 10:45:14.828125,0.76
2019-08-16 10:45:14.843750,-5.38
2019-08-16 10:45:14.859375,-9.54
2019-08-16 10:45:14.875000,-9.75
2019-08-16 10:45:14.890625,-5.75
2019-08-16 10:45:14.906250,0.69
2019-08-16 10:45:14.921875,6.43
2019-08-16 10:45:14.937500,8.47
2019-08-16 10:45:14.953125,5.56
2019-08-16 10:45:14.968750,-1.02
2019-08-16 10:45:14.984375,-8.04
2019-08-16 10:45:15.000000,-11.98
2019-08-16 10:45:15.015625,-10.88
2019-08-16 10:45:15.031250,-5.38
2019-08-16 10:45:15.046875,1.6
2019-08-16 10:45:15.062500,6.58
2019-08-16 10:45:15.078125,7.35
2019-08-16 10:45:15.093750,4.17
2019-08-16 10:45:15.109375,-0.52
2019-08-16 10:45:15.125000,-3.65
2019-08-16 10:45:15.140625,-3.32
2019-08-16 10:45:15.156250,-0.07
2019-08-16 10:45:15.171875,3.42
2019-08-16 10:45:15.187500,3.98
2019-08-16 10:45:15.203125,-0.09
2019-08-16 10:45:15.218750,-7.72
2019-08-16 10:45:15.234375,-15.53
2019-08-16 10:45:15.250000,-19.7
2019-08-16 10:45:15.265625,-18.15
2019-08-16 10:45:15.281250,-11.85
2019-08-16 10:45:15.296875,-4.35
2019-08-16 10:45:15.312500,0.3
2019-08-16 10:45:15.328125,-0.19
2019-08-16 10:45:15.343750,-5.01
2019-08-16 10:45:15.359375,-10.79
2019-08-16 10:45:15.375000,-13.6
2019-08-16 10:45:15.390625,-11.31
2019-08-16 10:45:15.406250,-4.67
2019-08-16 10:45:15.421875,3.21
2019-08-16 10:45:15.437500,8.72
2019-08-16 10:45:15.453125,10.04
2019-08-16 10:45:15.468750,7.83
2019-08-16 10:45:15.484375,4.75
2019-08-16 10:45:15.500000,3.61
2019-08-16 10:45:15.515625,5.6
2019-08-16 10:45:15.531250,9.55
2019-08-16 10:45:15.546875,12.83
2019-08-16 10:45:15.562500,13.13
2019-08-16 10:45:15.578125,9.77
2019-08-16 10:45:15.593750,4.36
2019-08-16 10:45:15.609375,-0.24
2019-08-16 10:45:15.625000,-1.46
2019-08-16 10:45:15.640625,1.35
2019-08-16 10:45:15.656250,6.71
2019-08-16 10:45:15.671875,11.81
2019-08-16 10:45:15.687500,14.12
2019-08-16 10:45:15.703125,12.84
2019-08-16 10:45:15.718750,9.35
2019-08-16 10:45:15.734375,6.5
2019-08-16 10:45:15.750000,6.85
2019-08-16 10:45:15.765625,11.19
2019-08-16 10:45:15.781250,17.83
2019-08-16 10:45:15.796875,23.41
2019-08-16 10:45:15.812500,24.53
2019-08-16 10:45:15.828125,19.67
2019-08-16 10:45:15.843750,10.1
2019-08-16 10:45:15.859375,-0.67
2019-08-16 10:45:15.875000,-8.68
2019-08-16 10:45:15.890625,-11.42
2019-08-16 10:45:15.906250,-9.13
2019-08-16 10:45:15.921875,-4.53
2019-08-16 10:45:15.937500,-1.23
2019-08-16 10:45:15.953125,-1.66
2019-08-16 10:45:15.968750,-5.91
2019-08-16 10:45:15.984375,-11.82
2019-08-16 10:45:16.000000,-16.44
2019-08-16 10:45:16.015625,-17.84
2019-08-16 10:45:16.031250,-16.23
2019-08-16 10:45:16.046875,-13.57
2019-08-16 10:45:16.062500,-11.99
2019-08-16 10:45:16.078125,-12.3
2019-08-16 10:45:16.093750,-13.5
2019-08-16 10:45:16.109375,-13.6
2019-08-16 10:45:16.125000,-11.03
2019-08-16 10:45:16.140625,-5.96
2019-08-16 10:45:16.156250,-0.65
2019-08-16 10:45:16.171875,1.47
2019-08-16 10:45:16.187500,-2.54
2019-08-16 10:45:16.203125,-13.36
2019-08-16 10:45:16.218750,-28.65
2019-08-16 10:45:16.234375,-43.4
2019-08-16 10:45:16.250000,-51.84
2019-08-16 10:45:16.265625,-49.76
2019-08-16 10:45:16.281250,-36.48
2019-08-16 10:45:16.296875,-15.29
2019-08-16 10:45:16.312500,7.64
2019-08-16 10:45:16.328125,25.72
2019-08-16 10:45:16.343750,34.66
2019-08-16 10:45:16.359375,33.98
2019-08-16 10:45:16.375000,26.64
2019-08-16 10:45:16.390625,17.14
2019-08-16 10:45:16.406250,9.21
2019-08-16 10:45:16.421875,4.27
2019-08-16 10:45:16.437500,1.61
2019-08-16 10:45:16.453125,-0.17
2019-08-16 10:45:16.468750,-1.52
2019-08-16 10:45:16.484375,-1.56
2019-08-16 10:45:16.500000,0.94
2019-08-16 10:45:16.515625,6.36
2019-08-16 10:45:16.531250,13.19
2019-08-16 10:45:16.546875,18.62
2019-08-16 10:45:16.562500,20.1
2019-08-16 10:45:16.578125,16.97
2019-08-16 10:45:16.593750,10.96
2019-08-16 10:45:16.609375,4.78
2019-08-16 10:45:16.625000,0.42
2019-08-16 10:45:16.640625,-2.14
2019-08-16 10:45:16.656250,-4.7
2019-08-16 10:45:16.671875,-9.06
2019-08-16 10:45:16.687500,-15.19
2019-08-16 10:45:16.703125,-20.86
2019-08-16 10:45:16.718750,-22.89
2019-08-16 10:45:16.734375,-19.39
2019-08-16 10:45:16.750000,-11.05
2019-08-16 10:45:16.765625,-1.02
2019-08-16 10:45:16.781250,7.04
2019-08-16 10:45:16.796875,10.93
2019-08-16 10:45:16.812500,10.7
2019-08-16 10:45:16.828125,8.14
2019-08-16 10:45:16.843750,5.53
2019-08-16 10:45:16.859375,4.78
2019-08-16 10:45:16.875000,7.25
2019-08-16 10:45:16.890625,13.58
2019-08-16 10:45:16.906250,22.93
2019-08-16 10:45:16.921875,32.35
2019-08-16 10:45:16.937500,36.7
2019-08-16 10:45:16.953125,30.36
2019-08-16 10:45:16.968750,10.57
2019-08-16 10:45:16.984375,-19.63
2019-08-16 10:45:17.000000,-50.71
2019-08-16 10:45:17.015625,-69.59
2019-08-16 10:45:17.031250,-65.37
2019-08-16 10:45:17.046875,-35.0
2019-08-16 10:45:17.062500,14.57
2019-08-16 10:45:17.078125,69.04
2019-08-16 10:45:17.093750,113.04
2019-08-16 10:45:17.109375,136.38
2019-08-16 10:45:17.125000,136.9
2019-08-16 10:45:17.140625,119.5
2019-08-16 10:45:17.156250,91.92
2019-08-16 10:45:17.171875,60.31
2019-08-16 10:45:17.187500,27.55
2019-08-16 10:45:17.203125,-5.9
2019-08-16 10:45:17.218750,-39.64
2019-08-16 10:45:17.234375,-71.7
2019-08-16 10:45:17.250000,-98.18
2019-08-16 10:45:17.265625,-115.19
2019-08-16 10:45:17.281250,-121.05
2019-08-16 10:45:17.296875,-117.77
2019-08-16 10:45:17.312500,-110.79
2019-08-16 10:45:17.328125,-106.58
2019-08-16 10:45:17.343750,-109.58
2019-08-16 10:45:17.359375,-119.56
2019-08-16 10:45:17.375000,-131.22
2019-08-16 10:45:17.390625,-136.13
2019-08-16 10:45:17.406250,-126.43
2019-08-16 10:45:17.421875,-98.65
2019-08-16 10:45:17.437500,-55.71
2019-08-16 10:45:17.453125,-6.07
2019-08-16 10:45:17.468750,39.45
2019-08-16 10:45:17.484375,71.84
2019-08-16 10:45:17.500000,87.07
2019-08-16 10:45:17.515625,86.76
2019-08-16 10:45:17.531250,76.41
2019-08-16 10:45:17.546875,62.28
2019-08-16 10:45:17.562500,48.45
2019-08-16 10:45:17.578125,35.77
2019-08-16 10:45:17.593750,22.65
2019-08-16 10:45:17.609375,7.35
2019-08-16 10:45:17.625000,-10.11
2019-08-16 10:45:17.640625,-26.98
2019-08-16 10:45:17.656250,-38.5
2019-08-16 10:45:17.671875,-40.3
2019-08-16 10:45:17.687500,-30.94
2019-08-16 10:45:17.703125,-13.17
2019-08-16 10:45:17.718750,6.98
2019-08-16 10:45:17.734375,22.85
2019-08-16 10:45:17.750000,30.42
2019-08-16 10:45:17.765625,29.85
2019-08-16 10:45:17.781250,24.86
2019-08-16 10:45:17.796875,20.16
2019-08-16 10:45:17.812500,18.84
2019-08-16 10:45:17.828125,20.9
2019-08-16 10:45:17.843750,23.74
2019-08-16 10:45:17.859375,24.78
2019-08-16 10:45:17.875000,23.11
2019-08-16 10:45:17.890625,20.55
2019-08-16 10:45:17.906250,20.63
2019-08-16 10:45:17.921875,26.37
2019-08-16 10:45:17.937500,38.1
2019-08-16 10:45:17.953125,53.0
2019-08-16 10:45:17.968750,65.81
2019-08-16 10:45:17.984375,71.01
2019-08-16 10:45:18.000000,65.34
2019-08-16 10:45:18.015625,48.99
2019-08-16 10:45:18.031250,25.62
2019-08-16 10:45:18.046875,0.91
2019-08-16 10:45:18.062500,-19.79
2019-08-16 10:45:18.078125,-33.59
2019-08-16 10:45:18.093750,-40.83
2019-08-16 10:45:18.109375,-44.26
2019-08-16 10:45:18.125000,-46.87
2019-08-16 10:45:18.140625,-49.83
2019-08-16 10:45:18.156250,-51.99
2019-08-16 10:45:18.171875,-50.9
2019-08-16 10:45:18.187500,-45.06
2019-08-16 10:45:18.203125,-35.32
2019-08-16 10:45:18.218750,-24.57
2019-08-16 10:45:18.234375,-15.93
2019-08-16 10:45:18.250000,-10.24
2019-08-16 10:45:18.265625,-5.68
2019-08-16 10:45:18.281250,0.86
2019-08-16 10:45:18.296875,10.94
2019-08-16 10:45:18.312500,22.38
2019-08-16 10:45:18.328125,29.72
2019-08-16 10:45:18.343750,27.43
2019-08-16 10:45:18.359375,13.94
2019-08-16 10:45:18.375000,-6.44
2019-08-16 10:45:18.390625,-25.09
2019-08-16 10:45:18.406250,-33.6
2019-08-16 10:45:18.421875,-28.56
2019-08-16 10:45:18.437500,-13.91
2019-08-16 10:45:18.453125,1.51
2019-08-16 10:45:18.468750,9.17
2019-08-16 10:45:18.484375,5.84
2019-08-16 10:45:18.500000,-4.54
2019-08-16 10:45:18.515625,-13.82
2019-08-16 10:45:18.531250,-15.09
2019-08-16 10:45:18.546875,-7.12
2019-08-16 10:45:18.562500,4.74
2019-08-16 10:45:18.578125,12.03
2019-08-16 10:45:18.593750,8.58
2019-08-16 10:45:18.609375,-5.55
2019-08-16 10:45:18.625000,-23.97
2019-08-16 10:45:18.640625,-37.61
2019-08-16 10:45:18.656250,-39.95
2019-08-16 10:45:18.671875,-30.41
2019-08-16 10:45:18.687500,-14.23
2019-08-16 10:45:18.703125,0.99
2019-08-16 10:45:18.718750,9.77
2019-08-16 10:45:18.734375,11.43
2019-08-16 10:45:18.750000,10.02
2019-08-16 10:45:18.765625,11.16
2019-08-16 10:45:18.781250,18.36
2019-08-16 10:45:18.796875,30.95
2019-08-16 10:45:18.812500,44.26
2019-08-16 10:45:18.828125,52.15
2019-08-16 10:45:18.843750,50.39
2019-08-16 10:45:18.859375,39.06
2019-08-16 10:45:18.875000,22.61
2019-08-16 10:45:18.890625,7.57
2019-08-16 10:45:18.906250,-0.79
2019-08-16 10:45:18.921875,-0.93
2019-08-16 10:45:18.937500,4.78
2019-08-16 10:45:18.953125,11.81
2019-08-16 10:45:18.968750,16.24
2019-08-16 10:45:18.984375,16.55
2019-08-16 10:45:19.000000,13.86
2019-08-16 10:45:19.015625,10.28
2019-08-16 10:45:19.031250,7.09
2019-08-16 10:45:19.046875,4.07
2019-08-16 10:45:19.062500,0.17
2019-08-16 10:45:19.078125,-4.97
2019-08-16 10:45:19.093750,-10.07
2019-08-16 10:45:19.109375,-12.77
2019-08-16 10:45:19.125000,-11.18
2019-08-16 10:45:19.140625,-5.31
2019-08-16 10:45:19.156250,2.41
2019-08-16 10:45:19.171875,8.57
2019-08-16 10:45:19.187500,10.49
2019-08-16 10:45:19.203125,7.71
2019-08-16 10:45:19.218750,2.23
2019-08-16 10:45:19.234375,-2.98
2019-08-16 10:45:19.250000,-5.42
2019-08-16 10:45:19.265625,-4.21
2019-08-16 10:45:19.281250,-0.09
2019-08-16 10:45:19.296875,5.19
2019-08-16 10:45:19.312500,9.88
2019-08-16 10:45:19.328125,12.84
2019-08-16 10:45:19.343750,13.87
2019-08-16 10:45:19.359375,13.5
2019-08-16 10:45:19.375000,12.49
2019-08-16 10:45:19.390625,11.24
2019-08-16 10:45:19.406250,9.52
2019-08-16 10:45:19.421875,6.7
2019-08-16 10:45:19.437500,2.52
2019-08-16 10:45:19.453125,-2.15
2019-08-16 10:45:19.468750,-5.38
2019-08-16 10:45:19.484375,-5.2
2019-08-16 10:45:19.500000,-0.73
2019-08-16 10:45:19.515625,7.1
2019-08-16 10:45:19.531250,15.81
2019-08-16 10:45:19.546875,22.53
2019-08-16 10:45:19.562500,25.0
2019-08-16 10:45:19.578125,22.28
2019-08-16 10:45:19.593750,14.86
2019-08-16 10:45:19.609375,4.21
2019-08-16 10:45:19.625000,-7.43
2019-08-16 10:45:19.640625,-17.18
2019-08-16 10:45:19.656250,-22.37
2019-08-16 10:45:19.671875,-21.52
2019-08-16 10:45:19.687500,-15.15
2019-08-16 10:45:19.703125,-6.09
2019-08-16 10:45:19.718750,2.0
2019-08-16 10:45:19.734375,6.69
2019-08-16 10:45:19.750000,8.25
2019-08-16 10:45:19.765625,9.21
2019-08-16 10:45:19.781250,12.13
2019-08-16 10:45:19.796875,17.17
2019-08-16 10:45:19.812500,21.31
2019-08-16 10:45:19.828125,20.42
2019-08-16 10:45:19.843750,12.42
2019-08-16 10:45:19.859375,-0.44
2019-08-16 10:45:19.875000,-12.35
2019-08-16 10:45:19.890625,-17.29
2019-08-16 10:45:19.906250,-12.81
2019-08-16 10:45:19.921875,-1.76
2019-08-16 10:45:19.937500,9.46
2019-08-16 10:45:19.953125,14.76
2019-08-16 10:45:19.968750,11.97
2019-08-16 10:45:19.984375,3.88
2019-08-16 10:45:20.000000,-4.0
2019-08-16 10:45:20.015625,-6.78
2019-08-16 10:45:20.031250,-2.98
2019-08-16 10:45:20.046875,5.35
2019-08-16 10:45:20.062500,14.28
2019-08-16 10:45:20.078125,20.5
2019-08-16 10:45:20.093750,22.8
2019-08-16 10:45:20.109375,22.06
2019-08-16 10:45:20.125000,19.98
2019-08-16 10:45:20.140625,18.01
2019-08-16 10:45:20.156250,16.63
2019-08-16 10:45:20.171875,15.23
2019-08-16 10:45:20.187500,12.76
2019-08-16 10:45:20.203125,8.45
2019-08-16 10:45:20.218750,2.45
2019-08-16 10:45:20.234375,-3.84
2019-08-16 10:45:20.250000,-8.22
2019-08-16 10:45:20.265625,-8.79
2019-08-16 10:45:20.281250,-5.0
2019-08-16 10:45:20.296875,1.65
2019-08-16 10:45:20.312500,8.12
2019-08-16 10:45:20.328125,11.45
2019-08-16 10:45:20.343750,10.32
2019-08-16 10:45:20.359375,5.86
2019-08-16 10:45:20.375000,0.94
2019-08-16 10:45:20.390625,-1.68
2019-08-16 10:45:20.406250,-0.89
2019-08-16 10:45:20.421875,2.22
2019-08-16 10:45:20.437500,5.12
2019-08-16 10:45:20.453125,5.29
2019-08-16 10:45:20.468750,1.62
2019-08-16 10:45:20.484375,-5.23
2019-08-16 10:45:20.500000,-13.36
2019-08-16 10:45:20.515625,-20.38
2019-08-16 10:45:20.531250,-24.38
2019-08-16 10:45:20.546875,-24.71
2019-08-16 10:45:20.562500,-22.2
2019-08-16 10:45:20.578125,-18.86
2019-08-16 10:45:20.593750,-16.91
2019-08-16 10:45:20.609375,-17.41
2019-08-16 10:45:20.625000,-19.55
2019-08-16 10:45:20.640625,-20.8
2019-08-16 10:45:20.656250,-18.2
2019-08-16 10:45:20.671875,-10.32
2019-08-16 10:45:20.687500,1.53
2019-08-16 10:45:20.703125,13.63
2019-08-16 10:45:20.718750,21.69
2019-08-16 10:45:20.734375,23.0
2019-08-16 10:45:20.750000,17.96
2019-08-16 10:45:20.765625,9.53
2019-08-16 10:45:20.781250,1.63
2019-08-16 10:45:20.796875,-3.06
2019-08-16 10:45:20.812500,-4.24
2019-08-16 10:45:20.828125,-3.62
2019-08-16 10:45:20.843750,-3.6
2019-08-16 10:45:20.859375,-5.63
2019-08-16 10:45:20.875000,-9.18
2019-08-16 10:45:20.890625,-12.15
2019-08-16 10:45:20.906250,-11.88
2019-08-16 10:45:20.921875,-6.71
2019-08-16 10:45:20.937500,2.68
2019-08-16 10:45:20.953125,13.38
2019-08-16 10:45:20.968750,21.51
2019-08-16 10:45:20.984375,24.51
2019-08-16 10:45:21.000000,22.53
2019-08-16 10:45:21.015625,18.29
2019-08-16 10:45:21.031250,15.29
2019-08-16 10:45:21.046875,15.25
2019-08-16 10:45:21.062500,16.89
2019-08-16 10:45:21.078125,16.75
2019-08-16 10:45:21.093750,11.75
2019-08-16 10:45:21.109375,1.61
2019-08-16 10:45:21.125000,-10.42
2019-08-16 10:45:21.140625,-19.38
2019-08-16 10:45:21.156250,-21.58
2019-08-16 10:45:21.171875,-16.87
2019-08-16 10:45:21.187500,-8.68
2019-08-16 10:45:21.203125,-1.87
2019-08-16 10:45:21.218750,0.25
2019-08-16 10:45:21.234375,-2.4
2019-08-16 10:45:21.250000,-7.14
2019-08-16 10:45:21.265625,-10.74
2019-08-16 10:45:21.281250,-11.37
2019-08-16 10:45:21.296875,-9.24
2019-08-16 10:45:21.312500,-5.93
2019-08-16 10:45:21.328125,-2.94
2019-08-16 10:45:21.343750,-0.83
2019-08-16 10:45:21.359375,0.78
2019-08-16 10:45:21.375000,2.68
2019-08-16 10:45:21.390625,5.25
2019-08-16 10:45:21.406250,8.47
2019-08-16 10:45:21.421875,11.89
2019-08-16 10:45:21.437500,14.76
2019-08-16 10:45:21.453125,16.25
2019-08-16 10:45:21.468750,15.48
2019-08-16 10:45:21.484375,12.22
2019-08-16 10:45:21.500000,7.41
2019-08-16 10:45:21.515625,3.3
2019-08-16 10:45:21.531250,2.59
2019-08-16 10:45:21.546875,6.69
2019-08-16 10:45:21.562500,14.55
2019-08-16 10:45:21.578125,22.73
2019-08-16 10:45:21.593750,27.29
2019-08-16 10:45:21.609375,26.13
2019-08-16 10:45:21.625000,20.42
2019-08-16 10:45:21.640625,13.88
2019-08-16 10:45:21.656250,10.2
2019-08-16 10:45:21.671875,10.54
2019-08-16 10:45:21.687500,12.86
2019-08-16 10:45:21.703125,13.55
2019-08-16 10:45:21.718750,10.13
2019-08-16 10:45:21.734375,3.21
2019-08-16 10:45:21.750000,-3.71
2019-08-16 10:45:21.765625,-6.54
2019-08-16 10:45:21.781250,-3.23
2019-08-16 10:45:21.796875,5.1
2019-08-16 10:45:21.812500,14.66
2019-08-16 10:45:21.828125,21.0
2019-08-16 10:45:21.843750,21.14
2019-08-16 10:45:21.859375,14.71
2019-08-16 10:45:21.875000,3.86
2019-08-16 10:45:21.890625,-7.89
2019-08-16 10:45:21.906250,-17.23
2019-08-16 10:45:21.921875,-22.33
2019-08-16 10:45:21.937500,-23.3
2019-08-16 10:45:21.953125,-21.72
2019-08-16 10:45:21.968750,-19.55
2019-08-16 10:45:21.984375,-17.96
2019-08-16 10:45:22.000000,-16.72
2019-08-16 10:45:22.015625,-14.59
2019-08-16 10:45:22.031250,-10.36
2019-08-16 10:45:22.046875,-4.13
2019-08-16 10:45:22.062500,2.47
2019-08-16 10:45:22.078125,6.95
2019-08-16 10:45:22.093750,7.43
2019-08-16 10:45:22.109375,4.06
2019-08-16 10:45:22.125000,-1.04
2019-08-16 10:45:22.140625,-4.91
2019-08-16 10:45:22.156250,-5.47
2019-08-16 10:45:22.171875,-2.8
2019-08-16 10:45:22.187500,0.9
2019-08-16 10:45:22.203125,2.64
2019-08-16 10:45:22.218750,0.58
2019-08-16 10:45:22.234375,-4.85
2019-08-16 10:45:22.250000,-10.91
2019-08-16 10:45:22.265625,-13.94
2019-08-16 10:45:22.281250,-11.52
2019-08-16 10:45:22.296875,-3.85
2019-08-16 10:45:22.312500,6.05
2019-08-16 10:45:22.328125,13.82
2019-08-16 10:45:22.343750,15.82
2019-08-16 10:45:22.359375,10.96
2019-08-16 10:45:22.375000,1.11
2019-08-16 10:45:22.390625,-9.8
2019-08-16 10:45:22.406250,-17.73
2019-08-16 10:45:22.421875,-20.21
2019-08-16 10:45:22.437500,-17.24
2019-08-16 10:45:22.453125,-10.99
2019-08-16 10:45:22.468750,-4.5
2019-08-16 10:45:22.484375,-0.32
2019-08-16 10:45:22.500000,0.52
2019-08-16 10:45:22.515625,-1.35
2019-08-16 10:45:22.531250,-4.25
2019-08-16 10:45:22.546875,-6.6
2019-08-16 10:45:22.562500,-7.61
2019-08-16 10:45:22.578125,-7.6
2019-08-16 10:45:22.593750,-7.4
2019-08-16 10:45:22.609375,-7.61
2019-08-16 10:45:22.625000,-8.04
2019-08-16 10:45:22.640625,-7.62
2019-08-16 10:45:22.656250,-5.21
2019-08-16 10:45:22.671875,-0.52
2019-08-16 10:45:22.687500,5.34
2019-08-16 10:45:22.703125,10.18
2019-08-16 10:45:22.718750,11.88
2019-08-16 10:45:22.734375,9.64
2019-08-16 10:45:22.750000,4.64
2019-08-16 10:45:22.765625,-0.43
2019-08-16 10:45:22.781250,-2.91
2019-08-16 10:45:22.796875,-1.63
2019-08-16 10:45:22.812500,2.42
2019-08-16 10:45:22.828125,6.62
2019-08-16 10:45:22.843750,8.25
2019-08-16 10:45:22.859375,6.11
2019-08-16 10:45:22.875000,1.21
2019-08-16 10:45:22.890625,-3.79
2019-08-16 10:45:22.906250,-6.06
2019-08-16 10:45:22.921875,-4.17
2019-08-16 10:45:22.937500,1.14
2019-08-16 10:45:22.953125,7.26
2019-08-16 10:45:22.968750,11.09
2019-08-16 10:45:22.984375,10.62
2019-08-16 10:45:23.000000,5.81
2019-08-16 10:45:23.015625,-1.27
2019-08-16 10:45:23.031250,-7.52
2019-08-16 10:45:23.046875,-10.53
2019-08-16 10:45:23.062500,-9.73
2019-08-16 10:45:23.078125,-6.67
2019-08-16 10:45:23.093750,-4.03
2019-08-16 10:45:23.109375,-3.9
2019-08-16 10:45:23.125000,-6.59
2019-08-16 10:45:23.140625,-10.32
2019-08-16 10:45:23.156250,-12.64
2019-08-16 10:45:23.171875,-12.13
2019-08-16 10:45:23.187500,-9.38
2019-08-16 10:45:23.203125,-6.76
2019-08-16 10:45:23.218750,-6.76
2019-08-16 10:45:23.234375,-10.06
2019-08-16 10:45:23.250000,-14.78
2019-08-16 10:45:23.265625,-17.55
2019-08-16 10:45:23.281250,-15.59
2019-08-16 10:45:23.296875,-8.74
2019-08-16 10:45:23.312500,0.35
2019-08-16 10:45:23.328125,7.66
2019-08-16 10:45:23.343750,10.16
2019-08-16 10:45:23.359375,7.58
2019-08-16 10:45:23.375000,2.39
2019-08-16 10:45:23.390625,-1.63
2019-08-16 10:45:23.406250,-1.61
2019-08-16 10:45:23.421875,2.8
2019-08-16 10:45:23.437500,9.29
2019-08-16 10:45:23.453125,14.1
2019-08-16 10:45:23.468750,14.34
2019-08-16 10:45:23.484375,9.61
2019-08-16 10:45:23.500000,2.32
2019-08-16 10:45:23.515625,-3.47
2019-08-16 10:45:23.531250,-4.26
2019-08-16 10:45:23.546875,0.9
2019-08-16 10:45:23.562500,9.71
2019-08-16 10:45:23.578125,17.67
2019-08-16 10:45:23.593750,20.54
2019-08-16 10:45:23.609375,16.62
2019-08-16 10:45:23.625000,7.57
2019-08-16 10:45:23.640625,-2.44
2019-08-16 10:45:23.656250,-9.04
2019-08-16 10:45:23.671875,-9.97
2019-08-16 10:45:23.687500,-6.15
2019-08-16 10:45:23.703125,-0.84
2019-08-16 10:45:23.718750,2.36
2019-08-16 10:45:23.734375,1.43
2019-08-16 10:45:23.750000,-3.19
2019-08-16 10:45:23.765625,-9.09
2019-08-16 10:45:23.781250,-13.5
2019-08-16 10:45:23.796875,-14.97
2019-08-16 10:45:23.812500,-14.17
2019-08-16 10:45:23.828125,-13.31
2019-08-16 10:45:23.843750,-14.65
2019-08-16 10:45:23.859375,-18.75
2019-08-16 10:45:23.875000,-23.96
2019-08-16 10:45:23.890625,-27.17
2019-08-16 10:45:23.906250,-25.66
2019-08-16 10:45:23.921875,-18.97
2019-08-16 10:45:23.937500,-9.16
2019-08-16 10:45:23.953125,0.06
2019-08-16 10:45:23.968750,5.37
2019-08-16 10:45:23.984375,5.59
2019-08-16 10:45:24.000000,2.14
2019-08-16 10:45:24.015625,-2.23
2019-08-16 10:45:24.031250,-5.2
2019-08-16 10:45:24.046875,-6.21
2019-08-16 10:45:24.062500,-6.52
2019-08-16 10:45:24.078125,-7.91
2019-08-16 10:45:24.093750,-11.04
2019-08-16 10:45:24.109375,-14.47
2019-08-16 10:45:24.125000,-15.36
2019-08-16 10:45:24.140625,-11.07
2019-08-16 10:45:24.156250,-1.12
2019-08-16 10:45:24.171875,12.27
2019-08-16 10:45:24.187500,24.73
2019-08-16 10:45:24.203125,31.87
2019-08-16 10:45:24.218750,31.35
2019-08-16 10:45:24.234375,24.14
2019-08-16 10:45:24.250000,13.73
2019-08-16 10:45:24.265625,4.43
2019-08-16 10:45:24.281250,-0.96
2019-08-16 10:45:24.296875,-2.32
2019-08-16 10:45:24.312500,-1.87
2019-08-16 10:45:24.328125,-2.75
2019-08-16 10:45:24.343750,-7.16
2019-08-16 10:45:24.359375,-15.2
2019-08-16 10:45:24.375000,-24.95
2019-08-16 10:45:24.390625,-33.32
2019-08-16 10:45:24.406250,-37.37
2019-08-16 10:45:24.421875,-35.43
2019-08-16 10:45:24.437500,-27.72
2019-08-16 10:45:24.453125,-16.19
2019-08-16 10:45:24.468750,-3.95
2019-08-16 10:45:24.484375,5.79
2019-08-16 10:45:24.500000,10.96
2019-08-16 10:45:24.515625,11.38
2019-08-16 10:45:24.531250,8.66
2019-08-16 10:45:24.546875,5.49
2019-08-16 10:45:24.562500,4.16
2019-08-16 10:45:24.578125,5.46
2019-08-16 10:45:24.593750,8.42
2019-08-16 10:45:24.609375,10.97
2019-08-16 10:45:24.625000,11.39
2019-08-16 10:45:24.640625,9.35
2019-08-16 10:45:24.656250,5.8
2019-08-16 10:45:24.671875,2.21
2019-08-16 10:45:24.687500,-0.98
2019-08-16 10:45:24.703125,-4.89
2019-08-16 10:45:24.718750,-11.58
2019-08-16 10:45:24.734375,-21.89
2019-08-16 10:45:24.750000,-34.08
2019-08-16 10:45:24.765625,-43.52
2019-08-16 10:45:24.781250,-44.49
2019-08-16 10:45:24.796875,-33.19
2019-08-16 10:45:24.812500,-10.14
2019-08-16 10:45:24.828125,19.01
2019-08-16 10:45:24.843750,45.74
2019-08-16 10:45:24.859375,62.51
2019-08-16 10:45:24.875000,66.2
2019-08-16 10:45:24.890625,58.83
2019-08-16 10:45:24.906250,45.68
2019-08-16 10:45:24.921875,31.52
2019-08-16 10:45:24.937500,17.8
2019-08-16 10:45:24.953125,2.51
2019-08-16 10:45:24.968750,-17.67
2019-08-16 10:45:24.984375,-44.24
2019-08-16 10:45:25.000000,-74.72
2019-08-16 10:45:25.015625,-102.94
2019-08-16 10:45:25.031250,-121.64
2019-08-16 10:45:25.046875,-126.05
2019-08-16 10:45:25.062500,-116.36
2019-08-16 10:45:25.078125,-97.56
2019-08-16 10:45:25.093750,-76.37
2019-08-16 10:45:25.109375,-57.8
2019-08-16 10:45:25.125000,-42.59
2019-08-16 10:45:25.140625,-27.65
2019-08-16 10:45:25.156250,-8.62
2019-08-16 10:45:25.171875,16.86
2019-08-16 10:45:25.187500,47.19
2019-08-16 10:45:25.203125,77.11
2019-08-16 10:45:25.218750,100.2
2019-08-16 10:45:25.234375,112.56
2019-08-16 10:45:25.250000,114.48
2019-08-16 10:45:25.265625,110.24
2019-08-16 10:45:25.281250,105.69
2019-08-16 10:45:25.296875,105.13
2019-08-16 10:45:25.312500,109.18
2019-08-16 10:45:25.328125,114.74
2019-08-16 10:45:25.343750,117.07
2019-08-16 10:45:25.359375,112.91
2019-08-16 10:45:25.375000,102.46
2019-08-16 10:45:25.390625,88.99
2019-08-16 10:45:25.406250,76.35
2019-08-16 10:45:25.421875,66.22
2019-08-16 10:45:25.437500,57.84
2019-08-16 10:45:25.453125,49.62
2019-08-16 10:45:25.468750,41.89
2019-08-16 10:45:25.484375,38.31
2019-08-16 10:45:25.500000,44.34
2019-08-16 10:45:25.515625,63.41
2019-08-16 10:45:25.531250,92.94
2019-08-16 10:45:25.546875,123.27
2019-08-16 10:45:25.562500,141.72
2019-08-16 10:45:25.578125,140.09
2019-08-16 10:45:25.593750,119.91
2019-08-16 10:45:25.609375,92.38
2019-08-16 10:45:25.625000,72.51
2019-08-16 10:45:25.640625,71.1
2019-08-16 10:45:25.656250,89.5
2019-08-16 10:45:25.671875,119.81
2019-08-16 10:45:25.687500,148.96
2019-08-16 10:45:25.703125,162.2
2019-08-16 10:45:25.718750,150.55
2019-08-16 10:45:25.734375,114.21
2019-08-16 10:45:25.750000,61.56
2019-08-16 10:45:25.765625,3.85
2019-08-16 10:45:25.781250,-50.57
2019-08-16 10:45:25.796875,-98.67
2019-08-16 10:45:25.812500,-140.24
2019-08-16 10:45:25.828125,-175.37
2019-08-16 10:45:25.843750,-202.39
2019-08-16 10:45:25.859375,-217.89
2019-08-16 10:45:25.875000,-218.78
2019-08-16 10:45:25.890625,-204.42
2019-08-16 10:45:25.906250,-177.61
2019-08-16 10:45:25.921875,-143.98
2019-08-16 10:45:25.937500,-111.99
2019-08-16 10:45:25.953125,-84.82
2019-08-16 10:45:25.968750,-62.8
2019-08-16 10:45:25.984375,-44.17
2019-08-16 10:45:26.000000,-25.83
2019-08-16 10:45:26.015625,-5.2
2019-08-16 10:45:26.031250,18.41
2019-08-16 10:45:26.046875,43.35
2019-08-16 10:45:26.062500,65.99
2019-08-16 10:45:26.078125,82.43
2019-08-16 10:45:26.093750,90.41
2019-08-16 10:45:26.109375,88.94
2019-08-16 10:45:26.125000,79.41
2019-08-16 10:45:26.140625,63.94
2019-08-16 10:45:26.156250,44.88
2019-08-16 10:45:26.171875,24.04
2019-08-16 10:45:26.187500,2.41
2019-08-16 10:45:26.203125,-20.15
2019-08-16 10:45:26.218750,-43.87
2019-08-16 10:45:26.234375,-68.09
2019-08-16 10:45:26.250000,-91.78
2019-08-16 10:45:26.265625,-113.77
2019-08-16 10:45:26.281250,-132.68
2019-08-16 10:45:26.296875,-147.46
2019-08-16 10:45:26.312500,-157.52
2019-08-16 10:45:26.328125,-162.83
2019-08-16 10:45:26.343750,-164.13
2019-08-16 10:45:26.359375,-162.24
2019-08-16 10:45:26.375000,-157.42
2019-08-16 10:45:26.390625,-149.78
2019-08-16 10:45:26.406250,-139.32
2019-08-16 10:45:26.421875,-125.89
2019-08-16 10:45:26.437500,-109.6
2019-08-16 10:45:26.453125,-92.83
2019-08-16 10:45:26.468750,-76.07
2019-08-16 10:45:26.484375,-60.33
2019-08-16 10:45:26.500000,-47.12
2019-08-16 10:45:26.515625,-38.0
2019-08-16 10:45:26.531250,-33.0
2019-08-16 10:45:26.546875,-33.53
2019-08-16 10:45:26.562500,-40.65
2019-08-16 10:45:26.578125,-54.61
2019-08-16 10:45:26.593750,-74.39
2019-08-16 10:45:26.609375,-98.38
2019-08-16 10:45:26.625000,-124.85
2019-08-16 10:45:26.640625,-151.64
2019-08-16 10:45:26.656250,-176.26
2019-08-16 10:45:26.671875,-196.03
2019-08-16 10:45:26.687500,-208.39
2019-08-16 10:45:26.703125,-210.7
2019-08-16 10:45:26.718750,-202.36
2019-08-16 10:45:26.734375,-181.08
2019-08-16 10:45:26.750000,-145.2
2019-08-16 10:45:26.765625,-94.45
2019-08-16 10:45:26.781250,-29.85
2019-08-16 10:45:26.796875,46.27
2019-08-16 10:45:26.812500,130.34
2019-08-16 10:45:26.828125,217.6
2019-08-16 10:45:26.843750,302.92
2019-08-16 10:45:26.859375,381.23
2019-08-16 10:45:26.875000,448.31
2019-08-16 10:45:26.890625,500.12
2019-08-16 10:45:26.906250,533.18
2019-08-16 10:45:26.921875,545.21
2019-08-16 10:45:26.937500,535.31
2019-08-16 10:45:26.953125,504.05
2019-08-16 10:45:26.968750,453.17
2019-08-16 10:45:26.984375,385.58
2019-08-16 10:45:27.000000,303.16
2019-08-16 10:45:27.015625,210.95
2019-08-16 10:45:27.031250,114.49
2019-08-16 10:45:27.046875,18.87
2019-08-16 10:45:27.062500,-71.46
2019-08-16 10:45:27.078125,-153.23
2019-08-16 10:45:27.093750,-224.22
2019-08-16 10:45:27.109375,-283.11
2019-08-16 10:45:27.125000,-329.45
2019-08-16 10:45:27.140625,-363.17
2019-08-16 10:45:27.156250,-384.7
2019-08-16 10:45:27.171875,-395.56
2019-08-16 10:45:27.187500,-397.82
2019-08-16 10:45:27.203125,-393.55
2019-08-16 10:45:27.218750,-384.59
2019-08-16 10:45:27.234375,-372.29
2019-08-16 10:45:27.250000,-357.14
2019-08-16 10:45:27.265625,-340.28
2019-08-16 10:45:27.281250,-320.5
2019-08-16 10:45:27.296875,-295.42
2019-08-16 10:45:27.312500,-262.73
2019-08-16 10:45:27.328125,-220.37
2019-08-16 10:45:27.343750,-166.65
2019-08-16 10:45:27.359375,-100.95
2019-08-16 10:45:27.375000,-23.91
2019-08-16 10:45:27.390625,62.47
2019-08-16 10:45:27.406250,154.9
2019-08-16 10:45:27.421875,249.19
2019-08-16 10:45:27.437500,340.19
2019-08-16 10:45:27.453125,422.18
2019-08-16 10:45:27.468750,489.59
2019-08-16 10:45:27.484375,537.98
2019-08-16 10:45:27.500000,564.14
2019-08-16 10:45:27.515625,566.5
2019-08-16 10:45:27.531250,545.75
2019-08-16 10:45:27.546875,504.24
2019-08-16 10:45:27.562500,445.87
2019-08-16 10:45:27.578125,374.94
2019-08-16 10:45:27.593750,295.78
2019-08-16 10:45:27.609375,210.96
2019-08-16 10:45:27.625000,124.2
2019-08-16 10:45:27.640625,39.64
2019-08-16 10:45:27.656250,-40.22
2019-08-16 10:45:27.671875,-113.93
2019-08-16 10:45:27.687500,-181.12
2019-08-16 10:45:27.703125,-241.93
2019-08-16 10:45:27.718750,-297.73
2019-08-16 10:45:27.734375,-350.81
2019-08-16 10:45:27.750000,-403.85
2019-08-16 10:45:27.765625,-458.75
2019-08-16 10:45:27.781250,-516.11
2019-08-16 10:45:27.796875,-574.72
2019-08-16 10:45:27.812500,-631.19
2019-08-16 10:45:27.828125,-680.8
2019-08-16 10:45:27.843750,-718.5
2019-08-16 10:45:27.859375,-741.83
2019-08-16 10:45:27.875000,-748.5
2019-08-16 10:45:27.890625,-736.65
2019-08-16 10:45:27.906250,-704.7
2019-08-16 10:45:27.921875,-651.35
2019-08-16 10:45:27.937500,-575.65
2019-08-16 10:45:27.953125,-477.28
2019-08-16 10:45:27.968750,-356.98
2019-08-16 10:45:27.984375,-216.75
2019-08-16 10:45:28.000000,-59.59
2019-08-16 10:45:28.015625,109.39
2019-08-16 10:45:28.031250,282.99
2019-08-16 10:45:28.046875,451.61
2019-08-16 10:45:28.062500,603.27
2019-08-16 10:45:28.078125,725.0
2019-08-16 10:45:28.093750,806.05
2019-08-16 10:45:28.109375,841.26
2019-08-16 10:45:28.125000,833.09
2019-08-16 10:45:28.140625,790.99
2019-08-16 10:45:28.156250,728.29
2019-08-16 10:45:28.171875,657.84
2019-08-16 10:45:28.187500,588.42
2019-08-16 10:45:28.203125,523.81
2019-08-16 10:45:28.218750,464.21
2019-08-16 10:45:28.234375,408.81
2019-08-16 10:45:28.250000,357.43
2019-08-16 10:45:28.265625,310.78
2019-08-16 10:45:28.281250,269.38
2019-08-16 10:45:28.296875,232.63
2019-08-16 10:45:28.312500,199.02
2019-08-16 10:45:28.328125,166.76
2019-08-16 10:45:28.343750,135.01
2019-08-16 10:45:28.359375,104.36
2019-08-16 10:45:28.375000,76.44
2019-08-16 10:45:28.390625,53.16
2019-08-16 10:45:28.406250,35.43
2019-08-16 10:45:28.421875,22.65
2019-08-16 10:45:28.437500,12.98
2019-08-16 10:45:28.453125,4.39
2019-08-16 10:45:28.468750,-4.6
2019-08-16 10:45:28.484375,-14.27
2019-08-16 10:45:28.500000,-23.61
2019-08-16 10:45:28.515625,-31.0
2019-08-16 10:45:28.531250,-35.09
2019-08-16 10:45:28.546875,-35.55
2019-08-16 10:45:28.562500,-33.4
2019-08-16 10:45:28.578125,-30.52
2019-08-16 10:45:28.593750,-28.58
2019-08-16 10:45:28.609375,-28.53
2019-08-16 10:45:28.625000,-30.53
2019-08-16 10:45:28.640625,-33.67
2019-08-16 10:45:28.656250,-36.82
2019-08-16 10:45:28.671875,-39.37
2019-08-16 10:45:28.687500,-41.78
2019-08-16 10:45:28.703125,-45.29
2019-08-16 10:45:28.718750,-53.35
2019-08-16 10:45:28.734375,-69.6
2019-08-16 10:45:28.750000,-96.44
2019-08-16 10:45:28.765625,-133.5
2019-08-16 10:45:28.781250,-176.36
2019-08-16 10:45:28.796875,-217.07
2019-08-16 10:45:28.812500,-246.62
2019-08-16 10:45:28.828125,-257.39
2019-08-16 10:45:28.843750,-246.81
2019-08-16 10:45:28.859375,-218.7
2019-08-16 10:45:28.875000,-179.32
2019-08-16 10:45:28.890625,-135.82
2019-08-16 10:45:28.906250,-94.36
2019-08-16 10:45:28.921875,-59.18
2019-08-16 10:45:28.937500,-32.64
2019-08-16 10:45:28.953125,-15.53
2019-08-16 10:45:28.968750,-6.98
2019-08-16 10:45:28.984375,-4.43
2019-08-16 10:45:29.000000,-3.32
2019-08-16 10:45:29.015625,1.87
2019-08-16 10:45:29.031250,15.39
2019-08-16 10:45:29.046875,38.49
2019-08-16 10:45:29.062500,68.72
2019-08-16 10:45:29.078125,101.35
2019-08-16 10:45:29.093750,131.17
2019-08-16 10:45:29.109375,154.2
2019-08-16 10:45:29.125000,167.79
2019-08-16 10:45:29.140625,171.18
2019-08-16 10:45:29.156250,163.39
2019-08-16 10:45:29.171875,143.74
2019-08-16 10:45:29.187500,112.67
2019-08-16 10:45:29.203125,72.78
2019-08-16 10:45:29.218750,29.31
2019-08-16 10:45:29.234375,-10.54
2019-08-16 10:45:29.250000,-39.47
2019-08-16 10:45:29.265625,-52.24
2019-08-16 10:45:29.281250,-48.87
2019-08-16 10:45:29.296875,-34.57
2019-08-16 10:45:29.312500,-17.43
2019-08-16 10:45:29.328125,-4.95
2019-08-16 10:45:29.343750,-1.01
2019-08-16 10:45:29.359375,-4.8
2019-08-16 10:45:29.375000,-12.24
2019-08-16 10:45:29.390625,-18.88
2019-08-16 10:45:29.406250,-22.27
2019-08-16 10:45:29.421875,-22.78
2019-08-16 10:45:29.437500,-22.39
2019-08-16 10:45:29.453125,-22.72
2019-08-16 10:45:29.468750,-23.91
2019-08-16 10:45:29.484375,-24.66
2019-08-16 10:45:29.500000,-23.34
2019-08-16 10:45:29.515625,-19.15
2019-08-16 10:45:29.531250,-12.79
2019-08-16 10:45:29.546875,-5.9
2019-08-16 10:45:29.562500,-0.59
2019-08-16 10:45:29.578125,1.9
2019-08-16 10:45:29.593750,1.68
2019-08-16 10:45:29.609375,-0.1
2019-08-16 10:45:29.625000,-1.79
2019-08-16 10:45:29.640625,-2.51
2019-08-16 10:45:29.656250,-1.76
2019-08-16 10:45:29.671875,-0.07
2019-08-16 10:45:29.687500,1.36
2019-08-16 10:45:29.703125,1.25
2019-08-16 10:45:29.718750,-1.1
2019-08-16 10:45:29.734375,-5.59
2019-08-16 10:45:29.750000,-11.48
2019-08-16 10:45:29.765625,-17.85
2019-08-16 10:45:29.781250,-24.01
2019-08-16 10:45:29.796875,-29.77
2019-08-16 10:45:29.812500,-35.59
2019-08-16 10:45:29.828125,-42.21
2019-08-16 10:45:29.843750,-50.4
2019-08-16 10:45:29.859375,-60.51
2019-08-16 10:45:29.875000,-72.49
2019-08-16 10:45:29.890625,-86.02
2019-08-16 10:45:29.906250,-100.69
2019-08-16 10:45:29.921875,-116.28
2019-08-16 10:45:29.937500,-132.74
2019-08-16 10:45:29.953125,-150.32
2019-08-16 10:45:29.968750,-169.32
2019-08-16 10:45:29.984375,-189.96
2019-08-16 10:45:30.000000,-211.99
2019-08-16 10:45:30.015625,-234.9
2019-08-16 10:45:30.031250,-257.91
2019-08-16 10:45:30.046875,-279.99
2019-08-16 10:45:30.062500,-299.94
2019-08-16 10:45:30.078125,-316.44
2019-08-16 10:45:30.093750,-328.17
2019-08-16 10:45:30.109375,-333.82
2019-08-16 10:45:30.125000,-332.74
2019-08-16 10:45:30.140625,-324.14
2019-08-16 10:45:30.156250,-307.59
2019-08-16 10:45:30.171875,-283.2
2019-08-16 10:45:30.187500,-251.73
2019-08-16 10:45:30.203125,-214.49
2019-08-16 10:45:30.218750,-173.18
2019-08-16 10:45:30.234375,-129.82
2019-08-16 10:45:30.250000,-86.48
2019-08-16 10:45:30.265625,-45.0
2019-08-16 10:45:30.281250,-6.84
2019-08-16 10:45:30.296875,26.91
2019-08-16 10:45:30.312500,55.66
2019-08-16 10:45:30.328125,79.26
2019-08-16 10:45:30.343750,97.95
2019-08-16 10:45:30.359375,112.26
2019-08-16 10:45:30.375000,122.89
2019-08-16 10:45:30.390625,130.52
2019-08-16 10:45:30.406250,135.74
2019-08-16 10:45:30.421875,139.04
2019-08-16 10:45:30.437500,140.77
2019-08-16 10:45:30.453125,141.11
2019-08-16 10:45:30.468750,140.13
2019-08-16 10:45:30.484375,137.81
2019-08-16 10:45:30.500000,134.11
2019-08-16 10:45:30.515625,129.03
2019-08-16 10:45:30.531250,122.65
2019-08-16 10:45:30.546875,115.16
2019-08-16 10:45:30.562500,106.79
2019-08-16 10:45:30.578125,97.86
2019-08-16 10:45:30.593750,88.66
2019-08-16 10:45:30.609375,79.5
2019-08-16 10:45:30.625000,70.65
2019-08-16 10:45:30.640625,62.3
2019-08-16 10:45:30.656250,54.53
2019-08-16 10:45:30.671875,47.32
2019-08-16 10:45:30.687500,40.55
2019-08-16 10:45:30.703125,34.05
2019-08-16 10:45:30.718750,27.66
2019-08-16 10:45:30.734375,21.22
2019-08-16 10:45:30.750000,14.65
2019-08-16 10:45:30.765625,7.87
2019-08-16 10:45:30.781250,0.89
2019-08-16 10:45:30.796875,-6.32
2019-08-16 10:45:30.812500,-13.74
2019-08-16 10:45:30.828125,-21.32
2019-08-16 10:45:30.843750,-29.07
2019-08-16 10:45:30.859375,-36.87
2019-08-16 10:45:30.875000,-44.56
2019-08-16 10:45:30.890625,-51.93
2019-08-16 10:45:30.906250,-58.81
2019-08-16 10:45:30.921875,-65.03
2019-08-16 10:45:30.937500,-70.53
2019-08-16 10:45:30.953125,-75.38
2019-08-16 10:45:30.968750,-79.74
2019-08-16 10:45:30.984375,-83.77
2019-08-16 10:45:31.000000,-87.45
2019-08-16 10:45:31.015625,-90.65
2019-08-16 10:45:31.031250,-93.06
2019-08-16 10:45:31.046875,-94.3
2019-08-16 10:45:31.062500,-94.08
2019-08-16 10:45:31.078125,-92.34
2019-08-16 10:45:31.093750,-89.28
2019-08-16 10:45:31.109375,-85.26
2019-08-16 10:45:31.125000,-80.96
2019-08-16 10:45:31.140625,-76.72
2019-08-16 10:45:31.156250,-72.43
2019-08-16 10:45:31.171875,-67.65
2019-08-16 10:45:31.187500,-61.74
2019-08-16 10:45:31.203125,-54.23
2019-08-16 10:45:31.218750,-45.1
2019-08-16 10:45:31.234375,-34.88
2019-08-16 10:45:31.250000,-24.45
2019-08-16 10:45:31.265625,-14.68
2019-08-16 10:45:31.281250,-5.89
2019-08-16 10:45:31.296875,2.3
2019-08-16 10:45:31.312500,10.86
2019-08-16 10:45:31.328125,20.99
2019-08-16 10:45:31.343750,33.5
2019-08-16 10:45:31.359375,48.33
2019-08-16 10:45:31.375000,64.55
2019-08-16 10:45:31.390625,80.82
2019-08-16 10:45:31.406250,95.89
2019-08-16 10:45:31.421875,109.32
2019-08-16 10:45:31.437500,121.71
2019-08-16 10:45:31.453125,134.27
2019-08-16 10:45:31.468750,148.36
2019-08-16 10:45:31.484375,165.04
2019-08-16 10:45:31.500000,184.89
2019-08-16 10:45:31.515625,208.04
2019-08-16 10:45:31.531250,234.18
2019-08-16 10:45:31.546875,262.1
2019-08-16 10:45:31.562500,289.17
2019-08-16 10:45:31.578125,311.47
2019-08-16 10:45:31.593750,324.55
2019-08-16 10:45:31.609375,325.01
2019-08-16 10:45:31.625000,312.1
2019-08-16 10:45:31.640625,288.34
2019-08-16 10:45:31.656250,258.7
2019-08-16 10:45:31.671875,228.47
2019-08-16 10:45:31.687500,201.29
2019-08-16 10:45:31.703125,178.05
2019-08-16 10:45:31.718750,157.42
2019-08-16 10:45:31.734375,137.55
2019-08-16 10:45:31.750000,117.74
2019-08-16 10:45:31.765625,98.98
2019-08-16 10:45:31.781250,83.17
2019-08-16 10:45:31.796875,71.76
2019-08-16 10:45:31.812500,64.46
2019-08-16 10:45:31.828125,59.03
2019-08-16 10:45:31.843750,52.35
2019-08-16 10:45:31.859375,42.07
2019-08-16 10:45:31.875000,27.81
2019-08-16 10:45:31.890625,11.48
2019-08-16 10:45:31.906250,-3.72
2019-08-16 10:45:31.921875,-14.93
2019-08-16 10:45:31.937500,-21.0
2019-08-16 10:45:31.953125,-22.98
2019-08-16 10:45:31.968750,-23.22
2019-08-16 10:45:31.984375,-23.69
2019-08-16 10:45:32.000000,-24.51
2019-08-16 10:45:32.015625,-23.5
2019-08-16 10:45:32.031250,-17.43
2019-08-16 10:45:32.046875,-4.02
2019-08-16 10:45:32.062500,16.21
2019-08-16 10:45:32.078125,39.69
2019-08-16 10:45:32.093750,61.31
2019-08-16 10:45:32.109375,76.95
2019-08-16 10:45:32.125000,85.7
2019-08-16 10:45:32.140625,89.9
2019-08-16 10:45:32.156250,94.64
2019-08-16 10:45:32.171875,105.08
2019-08-16 10:45:32.187500,124.25
2019-08-16 10:45:32.203125,151.95
2019-08-16 10:45:32.218750,185.2
2019-08-16 10:45:32.234375,219.85
2019-08-16 10:45:32.250000,252.05
2019-08-16 10:45:32.265625,279.11
2019-08-16 10:45:32.281250,299.28
2019-08-16 10:45:32.296875,311.29
2019-08-16 10:45:32.312500,313.86
2019-08-16 10:45:32.328125,305.74
2019-08-16 10:45:32.343750,286.16
2019-08-16 10:45:32.359375,255.49
2019-08-16 10:45:32.375000,215.49
2019-08-16 10:45:32.390625,169.02
2019-08-16 10:45:32.406250,119.49
2019-08-16 10:45:32.421875,70.04
2019-08-16 10:45:32.437500,23.07
2019-08-16 10:45:32.453125,-20.17
2019-08-16 10:45:32.468750,-59.3
2019-08-16 10:45:32.484375,-94.45
2019-08-16 10:45:32.500000,-125.75
2019-08-16 10:45:32.515625,-153.08
2019-08-16 10:45:32.531250,-176.07
2019-08-16 10:45:32.546875,-194.32
2019-08-16 10:45:32.562500,-207.66
2019-08-16 10:45:32.578125,-216.31
2019-08-16 10:45:32.593750,-220.95
2019-08-16 10:45:32.609375,-222.47
2019-08-16 10:45:32.625000,-221.76
2019-08-16 10:45:32.640625,-219.51
2019-08-16 10:45:32.656250,-216.05
2019-08-16 10:45:32.671875,-211.48
2019-08-16 10:45:32.687500,-205.76
2019-08-16 10:45:32.703125,-198.92
2019-08-16 10:45:32.718750,-191.12
2019-08-16 10:45:32.734375,-182.63
2019-08-16 10:45:32.750000,-173.81
2019-08-16 10:45:32.765625,-164.98
2019-08-16 10:45:32.781250,-156.3
2019-08-16 10:45:32.796875,-147.84
2019-08-16 10:45:32.812500,-139.58
2019-08-16 10:45:32.828125,-131.43
2019-08-16 10:45:32.843750,-123.39
2019-08-16 10:45:32.859375,-115.45
2019-08-16 10:45:32.875000,-107.71
2019-08-16 10:45:32.890625,-100.23
2019-08-16 10:45:32.906250,-93.09
2019-08-16 10:45:32.921875,-86.3
2019-08-16 10:45:32.937500,-79.88
2019-08-16 10:45:32.953125,-73.79
2019-08-16 10:45:32.968750,-68.03
2019-08-16 10:45:32.984375,-62.59
2019-08-16 10:45:33.000000,-57.47
2019-08-16 10:45:33.015625,-52.72
2019-08-16 10:45:33.031250,-48.32
2019-08-16 10:45:33.046875,-44.25
2019-08-16 10:45:33.062500,-40.44
2019-08-16 10:45:33.078125,-36.85
2019-08-16 10:45:33.093750,-33.45
2019-08-16 10:45:33.109375,-30.27
2019-08-16 10:45:33.125000,-27.35
2019-08-16 10:45:33.140625,-24.69
2019-08-16 10:45:33.156250,-22.36
2019-08-16 10:45:33.171875,-20.34
2019-08-16 10:45:33.187500,-18.53
2019-08-16 10:45:33.203125,-16.83
2019-08-16 10:45:33.218750,-15.13
2019-08-16 10:45:33.234375,-13.45
2019-08-16 10:45:33.250000,-11.85
2019-08-16 10:45:33.265625,-10.46
2019-08-16 10:45:33.281250,-9.41
2019-08-16 10:45:33.296875,-8.75
2019-08-16 10:45:33.312500,-8.41
2019-08-16 10:45:33.328125,-8.24
2019-08-16 10:45:33.343750,-8.01
2019-08-16 10:45:33.359375,-7.56
2019-08-16 10:45:33.375000,-6.83
2019-08-16 10:45:33.390625,-5.96
2019-08-16 10:45:33.406250,-5.19
2019-08-16 10:45:33.421875,-4.83
2019-08-16 10:45:33.437500,-5.06
2019-08-16 10:45:33.453125,-5.81
2019-08-16 10:45:33.468750,-6.76
2019-08-16 10:45:33.484375,-7.41
2019-08-16 10:45:33.500000,-7.37
2019-08-16 10:45:33.515625,-6.55
2019-08-16 10:45:33.531250,-5.29
2019-08-16 10:45:33.546875,-4.24
2019-08-16 10:45:33.562500,-4.12
2019-08-16 10:45:33.578125,-5.29
2019-08-16 10:45:33.593750,-7.53
2019-08-16 10:45:33.609375,-9.99
2019-08-16 10:45:33.625000,-11.59
2019-08-16 10:45:33.640625,-11.53
2019-08-16 10:45:33.656250,-9.76
2019-08-16 10:45:33.671875,-7.14
2019-08-16 10:45:33.687500,-5.07
2019-08-16 10:45:33.703125,-4.96
2019-08-16 10:45:33.718750,-7.36
2019-08-16 10:45:33.734375,-11.62
2019-08-16 10:45:33.750000,-16.08
2019-08-16 10:45:33.765625,-18.74
2019-08-16 10:45:33.781250,-18.28
2019-08-16 10:45:33.796875,-14.87
2019-08-16 10:45:33.812500,-10.26
2019-08-16 10:45:33.828125,-6.93
2019-08-16 10:45:33.843750,-6.74
2019-08-16 10:45:33.859375,-10.09
2019-08-16 10:45:33.875000,-15.38
2019-08-16 10:45:33.890625,-20.18
2019-08-16 10:45:33.906250,-22.57
2019-08-16 10:45:33.921875,-22.34
2019-08-16 10:45:33.937500,-20.66
2019-08-16 10:45:33.953125,-18.41
2019-08-16 10:45:33.968750,-14.88
2019-08-16 10:45:33.984375,-8.36
2019-08-16 10:45:34.000000,2.2
2019-08-16 10:45:34.015625,15.42
2019-08-16 10:45:34.031250,27.58
2019-08-16 10:45:34.046875,35.08
2019-08-16 10:45:34.062500,37.62
2019-08-16 10:45:34.078125,39.46
