2019-08-16 15:57:44.000000,-0.0
2019-08-16 15:57:44.015625,-0.0
2019-08-16 15:57:44.031250,-0.0
2019-08-16 15:57:44.046875,-0.0
2019-08-16 15:57:44.062500,-0.0
2019-08-16 15:57:44.078125,-0.0
2019-08-16 15:57:44.093750,-0.0
2019-08-16 15:57:44.109375,-0.0
2019-08-16 15:57:44.125000,-0.0
2019-08-16 15:57:44.140625,-0.0
2019-08-16 15:57:44.156250,0.0
2019-08-16 15:57:44.171875,0.01
2019-08-16 15:57:44.187500,0.01
2019-08-16 15:57:44.203125,-0.0
2019-08-16 15:57:44.218750,-0.03
2019-08-16 15:57:44.234375,-0.05
2019-08-16 15:57:44.250000,-0.05
2019-08-16 15:57:44.265625,0.0
2019-08-16 15:57:44.281250,0.13
2019-08-16 15:57:44.296875,0.36
2019-08-16 15:57:44.312500,0.66
2019-08-16 15:57:44.328125,1.01
2019-08-16 15:57:44.343750,1.37
2019-08-16 15:57:44.359375,1.72
2019-08-16 15:57:44.375000,2.06
2019-08-16 15:57:44.390625,2.4
2019-08-16 15:57:44.406250,2.79
2019-08-16 15:57:44.421875,3.24
2019-08-16 15:57:44.437500,3.8
2019-08-16 15:57:44.453125,4.42
2019-08-16 15:57:44.468750,5.06
2019-08-16 15:57:44.484375,5.66
2019-08-16 15:57:44.500000,6.2
2019-08-16 15:57:44.515625,6.68
2019-08-16 15:57:44.531250,7.15
2019-08-16 15:57:44.546875,7.68
2019-08-16 15:57:44.562500,8.31
2019-08-16 15:57:44.578125,9.14
2019-08-16 15:57:44.593750,10.09
2019-08-16 15:57:44.609375,11.04
2019-08-16 15:57:44.625000,11.88
2019-08-16 15:57:44.640625,12.56
2019-08-16 15:57:44.656250,13.14
2019-08-16 15:57:44.671875,13.76
2019-08-16 15:57:44.687500,14.65
2019-08-16 15:57:44.703125,15.96
2019-08-16 15:57:44.718750,17.91
2019-08-16 15:57:44.734375,20.32
2019-08-16 15:57:44.750000,22.9
2019-08-16 15:57:44.765625,25.38
2019-08-16 15:57:44.781250,27.58
2019-08-16 15:57:44.796875,29.57
2019-08-16 15:57:44.812500,31.68
2019-08-16 15:57:44.828125,34.32
2019-08-16 15:57:44.843750,37.81
2019-08-16 15:57:44.859375,42.54
2019-08-16 15:57:44.875000,48.15
2019-08-16 15:57:44.890625,54.1
2019-08-16 15:57:44.906250,59.83
2019-08-16 15:57:44.921875,64.97
2019-08-16 15:57:44.937500,69.58
2019-08-16 15:57:44.953125,74.14
2019-08-16 15:57:44.968750,79.34
2019-08-16 15:57:44.984375,85.71
2019-08-16 15:57:45.000000,93.76
2019-08-16 15:57:45.015625,103.0
2019-08-16 15:57:45.031250,112.62
2019-08-16 15:57:45.046875,121.73
2019-08-16 15:57:45.062500,129.77
2019-08-16 15:57:45.078125,136.75
2019-08-16 15:57:45.093750,143.3
2019-08-16 15:57:45.109375,150.75
2019-08-16 15:57:45.125000,157.77
2019-08-16 15:57:45.140625,166.64
2019-08-16 15:57:45.156250,177.95
2019-08-16 15:57:45.171875,191.79
2019-08-16 15:57:45.187500,206.97
2019-08-16 15:57:45.203125,220.57
2019-08-16 15:57:45.218750,228.25
2019-08-16 15:57:45.234375,225.36
2019-08-16 15:57:45.250000,208.53
2019-08-16 15:57:45.265625,176.87
2019-08-16 15:57:45.281250,132.76
2019-08-16 15:57:45.296875,80.05
2019-08-16 15:57:45.312500,23.07
2019-08-16 15:57:45.328125,-34.95
2019-08-16 15:57:45.343750,-92.44
2019-08-16 15:57:45.359375,-149.16
2019-08-16 15:57:45.375000,-205.22
2019-08-16 15:57:45.390625,-260.36
2019-08-16 15:57:45.406250,-313.72
2019-08-16 15:57:45.421875,-363.83
2019-08-16 15:57:45.437500,-409.77
2019-08-16 15:57:45.453125,-450.82
2019-08-16 15:57:45.468750,-486.38
2019-08-16 15:57:45.484375,-515.58
2019-08-16 15:57:45.500000,-537.02
2019-08-16 15:57:45.515625,-548.96
2019-08-16 15:57:45.531250,-549.65
2019-08-16 15:57:45.546875,-537.99
2019-08-16 15:57:45.562500,-513.77
2019-08-16 15:57:45.578125,-478.17
2019-08-16 15:57:45.593750,-433.31
2019-08-16 15:57:45.609375,-381.82
2019-08-16 15:57:45.625000,-326.32
2019-08-16 15:57:45.640625,-269.08
2019-08-16 15:57:45.656250,-211.8
2019-08-16 15:57:45.671875,-155.75
2019-08-16 15:57:45.687500,-101.96
2019-08-16 15:57:45.703125,-51.3
2019-08-16 15:57:45.718750,-4.74
2019-08-16 15:57:45.734375,36.85
2019-08-16 15:57:45.750000,72.81
2019-08-16 15:57:45.765625,102.87
2019-08-16 15:57:45.781250,127.16
2019-08-16 15:57:45.796875,146.21
2019-08-16 15:57:45.812500,160.71
2019-08-16 15:57:45.828125,171.38
2019-08-16 15:57:45.843750,178.84
2019-08-16 15:57:45.859375,183.49
2019-08-16 15:57:45.875000,185.61
2019-08-16 15:57:45.890625,185.44
2019-08-16 15:57:45.906250,183.24
2019-08-16 15:57:45.921875,179.36
2019-08-16 15:57:45.937500,174.22
2019-08-16 15:57:45.953125,168.23
2019-08-16 15:57:45.968750,161.72
2019-08-16 15:57:45.984375,154.96
2019-08-16 15:57:46.000000,148.08
2019-08-16 15:57:46.015625,141.16
2019-08-16 15:57:46.031250,134.23
2019-08-16 15:57:46.046875,127.34
2019-08-16 15:57:46.062500,120.57
2019-08-16 15:57:46.078125,113.97
2019-08-16 15:57:46.093750,107.62
2019-08-16 15:57:46.109375,101.58
2019-08-16 15:57:46.125000,95.88
2019-08-16 15:57:46.140625,90.54
2019-08-16 15:57:46.156250,85.55
2019-08-16 15:57:46.171875,80.93
2019-08-16 15:57:46.187500,76.68
2019-08-16 15:57:46.203125,72.83
2019-08-16 15:57:46.218750,69.37
2019-08-16 15:57:46.234375,66.33
2019-08-16 15:57:46.250000,63.68
2019-08-16 15:57:46.265625,61.4
2019-08-16 15:57:46.281250,59.46
2019-08-16 15:57:46.296875,57.8
2019-08-16 15:57:46.312500,56.32
2019-08-16 15:57:46.328125,54.91
2019-08-16 15:57:46.343750,53.42
2019-08-16 15:57:46.359375,51.67
2019-08-16 15:57:46.375000,49.48
2019-08-16 15:57:46.390625,46.7
2019-08-16 15:57:46.406250,43.23
2019-08-16 15:57:46.421875,38.99
2019-08-16 15:57:46.437500,34.0
2019-08-16 15:57:46.453125,28.3
2019-08-16 15:57:46.468750,22.03
2019-08-16 15:57:46.484375,15.4
2019-08-16 15:57:46.500000,8.69
2019-08-16 15:57:46.515625,2.18
2019-08-16 15:57:46.531250,-3.8
2019-08-16 15:57:46.546875,-8.98
2019-08-16 15:57:46.562500,-13.11
2019-08-16 15:57:46.578125,-16.03
2019-08-16 15:57:46.593750,-17.65
2019-08-16 15:57:46.609375,-18.0
2019-08-16 15:57:46.625000,-17.17
2019-08-16 15:57:46.640625,-15.34
2019-08-16 15:57:46.656250,-12.76
2019-08-16 15:57:46.671875,-9.68
2019-08-16 15:57:46.687500,-6.4
2019-08-16 15:57:46.703125,-3.15
2019-08-16 15:57:46.718750,-0.2
2019-08-16 15:57:46.734375,2.25
2019-08-16 15:57:46.750000,4.09
2019-08-16 15:57:46.765625,5.25
2019-08-16 15:57:46.781250,5.64
2019-08-16 15:57:46.796875,5.34
2019-08-16 15:57:46.812500,4.5
2019-08-16 15:57:46.828125,3.29
2019-08-16 15:57:46.843750,1.85
2019-08-16 15:57:46.859375,0.28
2019-08-16 15:57:46.875000,-1.38
2019-08-16 15:57:46.890625,-3.14
2019-08-16 15:57:46.906250,-5.02
2019-08-16 15:57:46.921875,-7.23
2019-08-16 15:57:46.937500,-9.83
2019-08-16 15:57:46.953125,-12.85
2019-08-16 15:57:46.968750,-16.36
2019-08-16 15:57:46.984375,-20.54
2019-08-16 15:57:47.000000,-25.68
2019-08-16 15:57:47.015625,-32.13
2019-08-16 15:57:47.031250,-40.19
2019-08-16 15:57:47.046875,-50.11
2019-08-16 15:57:47.062500,-62.26
2019-08-16 15:57:47.078125,-76.62
2019-08-16 15:57:47.093750,-92.86
2019-08-16 15:57:47.109375,-110.53
2019-08-16 15:57:47.125000,-129.11
2019-08-16 15:57:47.140625,-147.96
2019-08-16 15:57:47.156250,-166.39
2019-08-16 15:57:47.171875,-183.54
2019-08-16 15:57:47.187500,-198.35
2019-08-16 15:57:47.203125,-209.87
2019-08-16 15:57:47.218750,-216.7
2019-08-16 15:57:47.234375,-217.4
2019-08-16 15:57:47.250000,-210.83
2019-08-16 15:57:47.265625,-196.42
2019-08-16 15:57:47.281250,-174.4
2019-08-16 15:57:47.296875,-145.86
2019-08-16 15:57:47.312500,-112.35
2019-08-16 15:57:47.328125,-73.36
2019-08-16 15:57:47.343750,-30.96
2019-08-16 15:57:47.359375,12.39
2019-08-16 15:57:47.375000,54.4
2019-08-16 15:57:47.390625,93.11
2019-08-16 15:57:47.406250,126.93
2019-08-16 15:57:47.421875,154.57
2019-08-16 15:57:47.437500,175.04
2019-08-16 15:57:47.453125,188.0
2019-08-16 15:57:47.468750,194.12
2019-08-16 15:57:47.484375,194.55
2019-08-16 15:57:47.500000,191.4
2019-08-16 15:57:47.515625,186.96
2019-08-16 15:57:47.531250,183.0
2019-08-16 15:57:47.546875,180.23
2019-08-16 15:57:47.562500,178.3
2019-08-16 15:57:47.578125,175.86
2019-08-16 15:57:47.593750,171.57
2019-08-16 15:57:47.609375,164.85
2019-08-16 15:57:47.625000,155.72
2019-08-16 15:57:47.640625,145.23
2019-08-16 15:57:47.656250,134.5
2019-08-16 15:57:47.671875,124.26
2019-08-16 15:57:47.687500,114.19
2019-08-16 15:57:47.703125,103.09
2019-08-16 15:57:47.718750,89.39
2019-08-16 15:57:47.734375,71.21
2019-08-16 15:57:47.750000,47.29
2019-08-16 15:57:47.765625,16.92
2019-08-16 15:57:47.781250,-19.51
2019-08-16 15:57:47.796875,-60.01
2019-08-16 15:57:47.812500,-100.46
2019-08-16 15:57:47.828125,-134.91
2019-08-16 15:57:47.843750,-155.23
2019-08-16 15:57:47.859375,-156.84
2019-08-16 15:57:47.875000,-140.04
2019-08-16 15:57:47.890625,-110.09
2019-08-16 15:57:47.906250,-75.73
2019-08-16 15:57:47.921875,-45.54
2019-08-16 15:57:47.937500,-24.91
2019-08-16 15:57:47.953125,-14.5
2019-08-16 15:57:47.968750,-11.4
2019-08-16 15:57:47.984375,-11.53
2019-08-16 15:57:48.000000,-12.26
2019-08-16 15:57:48.015625,-12.96
2019-08-16 15:57:48.031250,-14.19
2019-08-16 15:57:48.046875,-16.48
2019-08-16 15:57:48.062500,-19.27
2019-08-16 15:57:48.078125,-21.11
2019-08-16 15:57:48.093750,-20.66
2019-08-16 15:57:48.109375,-17.64
2019-08-16 15:57:48.125000,-12.96
2019-08-16 15:57:48.140625,-8.53
2019-08-16 15:57:48.156250,-6.18
2019-08-16 15:57:48.171875,-6.58
2019-08-16 15:57:48.187500,-9.11
2019-08-16 15:57:48.203125,-12.19
2019-08-16 15:57:48.218750,-14.07
2019-08-16 15:57:48.234375,-13.48
2019-08-16 15:57:48.250000,-10.15
2019-08-16 15:57:48.265625,-4.81
2019-08-16 15:57:48.281250,1.17
2019-08-16 15:57:48.296875,6.51
2019-08-16 15:57:48.312500,10.61
2019-08-16 15:57:48.328125,13.57
2019-08-16 15:57:48.343750,15.98
2019-08-16 15:57:48.359375,18.46
2019-08-16 15:57:48.375000,21.26
2019-08-16 15:57:48.390625,24.04
2019-08-16 15:57:48.406250,25.96
2019-08-16 15:57:48.421875,25.98
2019-08-16 15:57:48.437500,23.32
2019-08-16 15:57:48.453125,17.61
2019-08-16 15:57:48.468750,9.3
2019-08-16 15:57:48.484375,-0.72
2019-08-16 15:57:48.500000,-11.44
2019-08-16 15:57:48.515625,-22.1
2019-08-16 15:57:48.531250,-32.32
2019-08-16 15:57:48.546875,-42.09
2019-08-16 15:57:48.562500,-51.69
2019-08-16 15:57:48.578125,-61.44
2019-08-16 15:57:48.593750,-71.45
2019-08-16 15:57:48.609375,-81.72
2019-08-16 15:57:48.625000,-92.09
2019-08-16 15:57:48.640625,-102.35
2019-08-16 15:57:48.656250,-112.39
2019-08-16 15:57:48.671875,-122.28
2019-08-16 15:57:48.687500,-132.16
2019-08-16 15:57:48.703125,-142.13
2019-08-16 15:57:48.718750,-152.21
2019-08-16 15:57:48.734375,-162.02
2019-08-16 15:57:48.750000,-170.65
2019-08-16 15:57:48.765625,-176.81
2019-08-16 15:57:48.781250,-178.93
2019-08-16 15:57:48.796875,-175.41
2019-08-16 15:57:48.812500,-164.84
2019-08-16 15:57:48.828125,-146.37
2019-08-16 15:57:48.843750,-119.47
2019-08-16 15:57:48.859375,-84.15
2019-08-16 15:57:48.875000,-41.09
2019-08-16 15:57:48.890625,8.31
2019-08-16 15:57:48.906250,61.87
2019-08-16 15:57:48.921875,116.64
2019-08-16 15:57:48.937500,169.02
2019-08-16 15:57:48.953125,215.0
2019-08-16 15:57:48.968750,250.71
2019-08-16 15:57:48.984375,272.84
2019-08-16 15:57:49.000000,279.33
2019-08-16 15:57:49.015625,269.78
2019-08-16 15:57:49.031250,245.64
2019-08-16 15:57:49.046875,209.9
2019-08-16 15:57:49.062500,166.31
2019-08-16 15:57:49.078125,118.51
2019-08-16 15:57:49.093750,68.9
2019-08-16 15:57:49.109375,19.38
2019-08-16 15:57:49.125000,-28.95
2019-08-16 15:57:49.140625,-75.07
2019-08-16 15:57:49.156250,-117.44
2019-08-16 15:57:49.171875,-153.68
2019-08-16 15:57:49.187500,-180.88
2019-08-16 15:57:49.203125,-196.7
2019-08-16 15:57:49.218750,-200.09
2019-08-16 15:57:49.234375,-192.05
2019-08-16 15:57:49.250000,-175.2
2019-08-16 15:57:49.265625,-153.34
2019-08-16 15:57:49.281250,-129.86
2019-08-16 15:57:49.296875,-106.61
2019-08-16 15:57:49.312500,-83.47
2019-08-16 15:57:49.328125,-58.33
2019-08-16 15:57:49.343750,-27.82
2019-08-16 15:57:49.359375,11.69
2019-08-16 15:57:49.375000,62.44
2019-08-16 15:57:49.390625,123.71
2019-08-16 15:57:49.406250,190.31
2019-08-16 15:57:49.421875,252.7
2019-08-16 15:57:49.437500,298.85
2019-08-16 15:57:49.453125,317.01
2019-08-16 15:57:49.468750,301.4
2019-08-16 15:57:49.484375,255.33
2019-08-16 15:57:49.500000,191.44
2019-08-16 15:57:49.515625,128.03
2019-08-16 15:57:49.531250,83.62
2019-08-16 15:57:49.546875,69.7
2019-08-16 15:57:49.562500,88.23
2019-08-16 15:57:49.578125,132.08
2019-08-16 15:57:49.593750,188.13
2019-08-16 15:57:49.609375,241.57
2019-08-16 15:57:49.625000,279.5
2019-08-16 15:57:49.640625,293.46
2019-08-16 15:57:49.656250,280.52
2019-08-16 15:57:49.671875,243.26
2019-08-16 15:57:49.687500,188.64
2019-08-16 15:57:49.703125,126.32
2019-08-16 15:57:49.718750,66.08
2019-08-16 15:57:49.734375,15.48
2019-08-16 15:57:49.750000,-21.13
2019-08-16 15:57:49.765625,-43.08
2019-08-16 15:57:49.781250,-52.43
2019-08-16 15:57:49.796875,-52.73
2019-08-16 15:57:49.812500,-48.04
2019-08-16 15:57:49.828125,-42.25
2019-08-16 15:57:49.843750,-38.57
2019-08-16 15:57:49.859375,-38.9
2019-08-16 15:57:49.875000,-43.52
2019-08-16 15:57:49.890625,-51.16
2019-08-16 15:57:49.906250,-60.15
2019-08-16 15:57:49.921875,-69.87
2019-08-16 15:57:49.937500,-81.72
2019-08-16 15:57:49.953125,-98.36
2019-08-16 15:57:49.968750,-121.89
2019-08-16 15:57:49.984375,-151.34
2019-08-16 15:57:50.000000,-181.65
2019-08-16 15:57:50.015625,-204.88
2019-08-16 15:57:50.031250,-213.04
2019-08-16 15:57:50.046875,-201.23
2019-08-16 15:57:50.062500,-169.25
2019-08-16 15:57:50.078125,-121.51
2019-08-16 15:57:50.093750,-65.58
2019-08-16 15:57:50.109375,-10.41
2019-08-16 15:57:50.125000,35.23
2019-08-16 15:57:50.140625,64.14
2019-08-16 15:57:50.156250,71.98
2019-08-16 15:57:50.171875,58.73
2019-08-16 15:57:50.187500,29.45
2019-08-16 15:57:50.203125,-6.1
2019-08-16 15:57:50.218750,-35.85
2019-08-16 15:57:50.234375,-49.18
2019-08-16 15:57:50.250000,-40.67
2019-08-16 15:57:50.265625,-12.06
2019-08-16 15:57:50.281250,28.42
2019-08-16 15:57:50.296875,69.0
2019-08-16 15:57:50.312500,98.28
2019-08-16 15:57:50.328125,108.74
2019-08-16 15:57:50.343750,98.85
2019-08-16 15:57:50.359375,72.86
2019-08-16 15:57:50.375000,38.81
2019-08-16 15:57:50.390625,5.58
2019-08-16 15:57:50.406250,-20.1
2019-08-16 15:57:50.421875,-35.24
2019-08-16 15:57:50.437500,-40.65
2019-08-16 15:57:50.453125,-39.43
2019-08-16 15:57:50.468750,-35.23
2019-08-16 15:57:50.484375,-31.02
2019-08-16 15:57:50.500000,-28.72
2019-08-16 15:57:50.515625,-29.36
2019-08-16 15:57:50.531250,-33.43
2019-08-16 15:57:50.546875,-40.53
2019-08-16 15:57:50.562500,-49.01
2019-08-16 15:57:50.578125,-55.88
2019-08-16 15:57:50.593750,-57.48
2019-08-16 15:57:50.609375,-51.03
2019-08-16 15:57:50.625000,-36.24
2019-08-16 15:57:50.640625,-16.16
2019-08-16 15:57:50.656250,3.46
2019-08-16 15:57:50.671875,16.37
2019-08-16 15:57:50.687500,18.35
2019-08-16 15:57:50.703125,9.09
2019-08-16 15:57:50.718750,-7.81
2019-08-16 15:57:50.734375,-26.7
2019-08-16 15:57:50.750000,-42.41
2019-08-16 15:57:50.765625,-52.35
2019-08-16 15:57:50.781250,-56.75
2019-08-16 15:57:50.796875,-57.47
2019-08-16 15:57:50.812500,-56.19
2019-08-16 15:57:50.828125,-53.36
2019-08-16 15:57:50.843750,-48.63
2019-08-16 15:57:50.859375,-42.16
2019-08-16 15:57:50.875000,-35.66
2019-08-16 15:57:50.890625,-32.0
2019-08-16 15:57:50.906250,-33.58
2019-08-16 15:57:50.921875,-40.47
2019-08-16 15:57:50.937500,-49.69
2019-08-16 15:57:50.953125,-56.4
2019-08-16 15:57:50.968750,-56.25
2019-08-16 15:57:50.984375,-47.56
2019-08-16 15:57:51.000000,-32.09
2019-08-16 15:57:51.015625,-14.06
2019-08-16 15:57:51.031250,1.77
2019-08-16 15:57:51.046875,11.87
2019-08-16 15:57:51.062500,14.87
2019-08-16 15:57:51.078125,11.3
2019-08-16 15:57:51.093750,3.07
2019-08-16 15:57:51.109375,-7.42
2019-08-16 15:57:51.125000,-17.64
2019-08-16 15:57:51.140625,-25.37
2019-08-16 15:57:51.156250,-28.98
2019-08-16 15:57:51.171875,-27.64
2019-08-16 15:57:51.187500,-21.61
2019-08-16 15:57:51.203125,-12.16
2019-08-16 15:57:51.218750,-1.39
2019-08-16 15:57:51.234375,8.24
2019-08-16 15:57:51.250000,14.44
2019-08-16 15:57:51.265625,15.94
2019-08-16 15:57:51.281250,13.07
2019-08-16 15:57:51.296875,7.93
2019-08-16 15:57:51.312500,3.63
2019-08-16 15:57:51.328125,2.85
2019-08-16 15:57:51.343750,6.22
2019-08-16 15:57:51.359375,11.68
2019-08-16 15:57:51.375000,15.3
2019-08-16 15:57:51.390625,13.35
2019-08-16 15:57:51.406250,4.63
2019-08-16 15:57:51.421875,-8.54
2019-08-16 15:57:51.437500,-21.33
2019-08-16 15:57:51.453125,-28.9
2019-08-16 15:57:51.468750,-28.99
2019-08-16 15:57:51.484375,-22.82
2019-08-16 15:57:51.500000,-14.03
2019-08-16 15:57:51.515625,-6.19
2019-08-16 15:57:51.531250,-0.67
2019-08-16 15:57:51.546875,3.88
2019-08-16 15:57:51.562500,10.2
2019-08-16 15:57:51.578125,19.99
2019-08-16 15:57:51.593750,32.27
2019-08-16 15:57:51.609375,43.43
2019-08-16 15:57:51.625000,49.09
2019-08-16 15:57:51.640625,46.43
2019-08-16 15:57:51.656250,35.88
2019-08-16 15:57:51.671875,20.82
2019-08-16 15:57:51.687500,6.0
2019-08-16 15:57:51.703125,-4.64
2019-08-16 15:57:51.718750,-9.49
2019-08-16 15:57:51.734375,-9.44
2019-08-16 15:57:51.750000,-7.06
2019-08-16 15:57:51.765625,-5.07
2019-08-16 15:57:51.781250,-5.17
2019-08-16 15:57:51.796875,-7.34
2019-08-16 15:57:51.812500,-10.14
2019-08-16 15:57:51.828125,-11.47
2019-08-16 15:57:51.843750,-9.71
2019-08-16 15:57:51.859375,-4.54
2019-08-16 15:57:51.875000,2.98
2019-08-16 15:57:51.890625,11.02
2019-08-16 15:57:51.906250,18.11
2019-08-16 15:57:51.921875,23.9
2019-08-16 15:57:51.937500,29.05
2019-08-16 15:57:51.953125,34.09
2019-08-16 15:57:51.968750,38.14
2019-08-16 15:57:51.984375,38.48
2019-08-16 15:57:52.000000,31.7
2019-08-16 15:57:52.015625,16.0
2019-08-16 15:57:52.031250,-6.92
2019-08-16 15:57:52.046875,-31.47
2019-08-16 15:57:52.062500,-50.08
2019-08-16 15:57:52.078125,-56.62
2019-08-16 15:57:52.093750,-49.66
2019-08-16 15:57:52.109375,-33.54
2019-08-16 15:57:52.125000,-17.16
2019-08-16 15:57:52.140625,-10.17
2019-08-16 15:57:52.156250,-18.88
2019-08-16 15:57:52.171875,-43.45
2019-08-16 15:57:52.187500,-77.61
2019-08-16 15:57:52.203125,-110.84
2019-08-16 15:57:52.218750,-131.91
2019-08-16 15:57:52.234375,-132.55
2019-08-16 15:57:52.250000,-110.04
2019-08-16 15:57:52.265625,-67.84
2019-08-16 15:57:52.281250,-14.04
2019-08-16 15:57:52.296875,41.35
2019-08-16 15:57:52.312500,89.37
2019-08-16 15:57:52.328125,124.3
2019-08-16 15:57:52.343750,144.05
2019-08-16 15:57:52.359375,148.88
2019-08-16 15:57:52.375000,139.51
2019-08-16 15:57:52.390625,116.08
2019-08-16 15:57:52.406250,78.77
2019-08-16 15:57:52.421875,29.84
2019-08-16 15:57:52.437500,-24.61
2019-08-16 15:57:52.453125,-74.63
2019-08-16 15:57:52.468750,-108.74
2019-08-16 15:57:52.484375,-117.74
2019-08-16 15:57:52.500000,-98.41
2019-08-16 15:57:52.515625,-55.36
2019-08-16 15:57:52.531250,-0.17
2019-08-16 15:57:52.546875,51.67
2019-08-16 15:57:52.562500,85.34
2019-08-16 15:57:52.578125,91.11
2019-08-16 15:57:52.593750,67.29
2019-08-16 15:57:52.609375,21.15
2019-08-16 15:57:52.625000,-33.19
2019-08-16 15:57:52.640625,-79.19
2019-08-16 15:57:52.656250,-103.38
2019-08-16 15:57:52.671875,-99.88
2019-08-16 15:57:52.687500,-71.8
2019-08-16 15:57:52.703125,-28.89
2019-08-16 15:57:52.718750,17.15
2019-08-16 15:57:52.734375,56.78
2019-08-16 15:57:52.750000,84.44
2019-08-16 15:57:52.765625,97.3
2019-08-16 15:57:52.781250,93.69
2019-08-16 15:57:52.796875,72.83
2019-08-16 15:57:52.812500,36.6
2019-08-16 15:57:52.828125,-8.16
2019-08-16 15:57:52.843750,-49.42
2019-08-16 15:57:52.859375,-73.39
2019-08-16 15:57:52.875000,-70.11
2019-08-16 15:57:52.890625,-38.67
2019-08-16 15:57:52.906250,11.35
2019-08-16 15:57:52.921875,63.12
2019-08-16 15:57:52.937500,99.07
2019-08-16 15:57:52.953125,107.86
2019-08-16 15:57:52.968750,88.34
2019-08-16 15:57:52.984375,49.34
2019-08-16 15:57:53.000000,5.52
2019-08-16 15:57:53.015625,-28.48
2019-08-16 15:57:53.031250,-42.96
2019-08-16 15:57:53.046875,-35.9
2019-08-16 15:57:53.062500,-12.3
2019-08-16 15:57:53.078125,18.97
2019-08-16 15:57:53.093750,48.97
2019-08-16 15:57:53.109375,71.31
2019-08-16 15:57:53.125000,82.89
2019-08-16 15:57:53.140625,82.58
2019-08-16 15:57:53.156250,70.0
2019-08-16 15:57:53.171875,45.35
2019-08-16 15:57:53.187500,10.73
2019-08-16 15:57:53.203125,-28.24
2019-08-16 15:57:53.218750,-62.32
2019-08-16 15:57:53.234375,-81.36
2019-08-16 15:57:53.250000,-78.68
2019-08-16 15:57:53.265625,-54.79
2019-08-16 15:57:53.281250,-17.9
2019-08-16 15:57:53.296875,19.32
2019-08-16 15:57:53.312500,45.11
2019-08-16 15:57:53.328125,53.34
2019-08-16 15:57:53.343750,45.1
2019-08-16 15:57:53.359375,26.82
2019-08-16 15:57:53.375000,6.35
2019-08-16 15:57:53.390625,-10.57
2019-08-16 15:57:53.406250,-21.77
2019-08-16 15:57:53.421875,-27.91
2019-08-16 15:57:53.437500,-30.43
2019-08-16 15:57:53.453125,-30.0
2019-08-16 15:57:53.468750,-26.23
2019-08-16 15:57:53.484375,-18.59
2019-08-16 15:57:53.500000,-7.65
2019-08-16 15:57:53.515625,4.5
2019-08-16 15:57:53.531250,14.8
2019-08-16 15:57:53.546875,20.5
2019-08-16 15:57:53.562500,20.26
2019-08-16 15:57:53.578125,14.64
2019-08-16 15:57:53.593750,5.82
2019-08-16 15:57:53.609375,-3.19
2019-08-16 15:57:53.625000,-9.51
2019-08-16 15:57:53.640625,-11.32
2019-08-16 15:57:53.656250,-8.4
2019-08-16 15:57:53.671875,-2.31
2019-08-16 15:57:53.687500,4.33
2019-08-16 15:57:53.703125,8.88
2019-08-16 15:57:53.718750,9.89
2019-08-16 15:57:53.734375,7.74
2019-08-16 15:57:53.750000,4.19
2019-08-16 15:57:53.765625,1.33
2019-08-16 15:57:53.781250,0.38
2019-08-16 15:57:53.796875,1.1
2019-08-16 15:57:53.812500,2.34
2019-08-16 15:57:53.828125,3.03
2019-08-16 15:57:53.843750,3.22
2019-08-16 15:57:53.859375,4.06
2019-08-16 15:57:53.875000,6.86
2019-08-16 15:57:53.890625,11.96
2019-08-16 15:57:53.906250,18.07
2019-08-16 15:57:53.921875,22.81
2019-08-16 15:57:53.937500,23.83
2019-08-16 15:57:53.953125,20.0
2019-08-16 15:57:53.968750,11.92
2019-08-16 15:57:53.984375,1.66
2019-08-16 15:57:54.000000,-7.94
2019-08-16 15:57:54.015625,-14.07
2019-08-16 15:57:54.031250,-14.78
2019-08-16 15:57:54.046875,-9.53
2019-08-16 15:57:54.062500,0.34
2019-08-16 15:57:54.078125,11.89
2019-08-16 15:57:54.093750,21.38
2019-08-16 15:57:54.109375,25.87
2019-08-16 15:57:54.125000,24.71
2019-08-16 15:57:54.140625,20.17
2019-08-16 15:57:54.156250,16.58
2019-08-16 15:57:54.171875,18.07
2019-08-16 15:57:54.187500,26.16
2019-08-16 15:57:54.203125,38.52
2019-08-16 15:57:54.218750,49.74
2019-08-16 15:57:54.234375,54.07
2019-08-16 15:57:54.250000,48.46
2019-08-16 15:57:54.265625,34.52
2019-08-16 15:57:54.281250,18.26
2019-08-16 15:57:54.296875,7.62
2019-08-16 15:57:54.312500,9.08
2019-08-16 15:57:54.328125,24.84
2019-08-16 15:57:54.343750,51.8
2019-08-16 15:57:54.359375,82.66
2019-08-16 15:57:54.375000,108.63
2019-08-16 15:57:54.390625,122.41
2019-08-16 15:57:54.406250,120.23
2019-08-16 15:57:54.421875,102.44
2019-08-16 15:57:54.437500,72.7
2019-08-16 15:57:54.453125,36.65
2019-08-16 15:57:54.468750,0.49
2019-08-16 15:57:54.484375,-30.09
2019-08-16 15:57:54.500000,-51.08
2019-08-16 15:57:54.515625,-61.08
2019-08-16 15:57:54.531250,-62.25
2019-08-16 15:57:54.546875,-60.11
2019-08-16 15:57:54.562500,-61.75
2019-08-16 15:57:54.578125,-72.84
2019-08-16 15:57:54.593750,-94.36
2019-08-16 15:57:54.609375,-120.81
2019-08-16 15:57:54.625000,-141.2
2019-08-16 15:57:54.640625,-143.36
2019-08-16 15:57:54.656250,-119.31
2019-08-16 15:57:54.671875,-69.67
2019-08-16 15:57:54.687500,-4.27
2019-08-16 15:57:54.703125,61.59
2019-08-16 15:57:54.718750,112.86
2019-08-16 15:57:54.734375,139.75
2019-08-16 15:57:54.750000,139.9
2019-08-16 15:57:54.765625,117.1
2019-08-16 15:57:54.781250,78.43
2019-08-16 15:57:54.796875,32.35
2019-08-16 15:57:54.812500,-12.0
2019-08-16 15:57:54.828125,-44.76
2019-08-16 15:57:54.843750,-56.58
2019-08-16 15:57:54.859375,-41.89
2019-08-16 15:57:54.875000,-2.88
2019-08-16 15:57:54.890625,48.45
2019-08-16 15:57:54.906250,92.85
2019-08-16 15:57:54.921875,110.72
2019-08-16 15:57:54.937500,90.47
2019-08-16 15:57:54.953125,33.83
2019-08-16 15:57:54.968750,-45.0
2019-08-16 15:57:54.984375,-125.81
2019-08-16 15:57:55.000000,-190.87
2019-08-16 15:57:55.015625,-231.15
2019-08-16 15:57:55.031250,-247.75
2019-08-16 15:57:55.046875,-248.78
2019-08-16 15:57:55.062500,-244.35
2019-08-16 15:57:55.078125,-242.27
2019-08-16 15:57:55.093750,-245.24
2019-08-16 15:57:55.109375,-252.98
2019-08-16 15:57:55.125000,-263.74
2019-08-16 15:57:55.140625,-275.51
2019-08-16 15:57:55.156250,-285.97
2019-08-16 15:57:55.171875,-292.31
2019-08-16 15:57:55.187500,-291.45
2019-08-16 15:57:55.203125,-280.8
2019-08-16 15:57:55.218750,-259.46
2019-08-16 15:57:55.234375,-230.77
2019-08-16 15:57:55.250000,-199.21
2019-08-16 15:57:55.265625,-169.18
2019-08-16 15:57:55.281250,-143.54
2019-08-16 15:57:55.296875,-122.09
2019-08-16 15:57:55.312500,-101.44
2019-08-16 15:57:55.328125,-75.87
2019-08-16 15:57:55.343750,-39.29
2019-08-16 15:57:55.359375,12.33
2019-08-16 15:57:55.375000,78.96
2019-08-16 15:57:55.390625,154.76
2019-08-16 15:57:55.406250,228.45
2019-08-16 15:57:55.421875,285.77
2019-08-16 15:57:55.437500,314.12
2019-08-16 15:57:55.453125,307.74
2019-08-16 15:57:55.468750,271.44
2019-08-16 15:57:55.484375,220.36
2019-08-16 15:57:55.500000,174.91
2019-08-16 15:57:55.515625,152.69
2019-08-16 15:57:55.531250,161.21
2019-08-16 15:57:55.546875,194.8
2019-08-16 15:57:55.562500,237.84
2019-08-16 15:57:55.578125,272.42
2019-08-16 15:57:55.593750,286.16
2019-08-16 15:57:55.609375,276.36
2019-08-16 15:57:55.625000,249.1
2019-08-16 15:57:55.640625,214.59
2019-08-16 15:57:55.656250,182.07
2019-08-16 15:57:55.671875,156.84
2019-08-16 15:57:55.687500,140.12
2019-08-16 15:57:55.703125,130.78
2019-08-16 15:57:55.718750,127.13
2019-08-16 15:57:55.734375,127.85
2019-08-16 15:57:55.750000,131.6
2019-08-16 15:57:55.765625,136.67
2019-08-16 15:57:55.781250,141.05
2019-08-16 15:57:55.796875,143.05
2019-08-16 15:57:55.812500,141.73
2019-08-16 15:57:55.828125,137.18
2019-08-16 15:57:55.843750,130.36
2019-08-16 15:57:55.859375,123.01
2019-08-16 15:57:55.875000,117.31
2019-08-16 15:57:55.890625,115.43
2019-08-16 15:57:55.906250,118.85
2019-08-16 15:57:55.921875,127.69
2019-08-16 15:57:55.937500,140.32
2019-08-16 15:57:55.953125,153.6
2019-08-16 15:57:55.968750,163.9
2019-08-16 15:57:55.984375,168.2
2019-08-16 15:57:56.000000,164.92
2019-08-16 15:57:56.015625,154.26
2019-08-16 15:57:56.031250,137.89
2019-08-16 15:57:56.046875,118.09
2019-08-16 15:57:56.062500,96.94
2019-08-16 15:57:56.078125,75.68
2019-08-16 15:57:56.093750,54.37
2019-08-16 15:57:56.109375,32.11
2019-08-16 15:57:56.125000,7.45
2019-08-16 15:57:56.140625,-21.24
2019-08-16 15:57:56.156250,-55.47
2019-08-16 15:57:56.171875,-96.39
2019-08-16 15:57:56.187500,-144.35
2019-08-16 15:57:56.203125,-198.15
2019-08-16 15:57:56.218750,-254.08
2019-08-16 15:57:56.234375,-305.72
2019-08-16 15:57:56.250000,-344.84
2019-08-16 15:57:56.265625,-363.86
2019-08-16 15:57:56.281250,-358.77
2019-08-16 15:57:56.296875,-331.52
2019-08-16 15:57:56.312500,-290.19
2019-08-16 15:57:56.328125,-246.31
2019-08-16 15:57:56.343750,-210.55
2019-08-16 15:57:56.359375,-188.44
2019-08-16 15:57:56.375000,-178.73
2019-08-16 15:57:56.390625,-174.79
2019-08-16 15:57:56.406250,-168.12
2019-08-16 15:57:56.421875,-152.03
2019-08-16 15:57:56.437500,-123.63
2019-08-16 15:57:56.453125,-83.82
2019-08-16 15:57:56.468750,-36.19
2019-08-16 15:57:56.484375,13.77
2019-08-16 15:57:56.500000,59.32
2019-08-16 15:57:56.515625,92.95
2019-08-16 15:57:56.531250,108.04
2019-08-16 15:57:56.546875,101.22
2019-08-16 15:57:56.562500,74.29
2019-08-16 15:57:56.578125,34.43
2019-08-16 15:57:56.593750,-8.13
2019-08-16 15:57:56.609375,-43.88
2019-08-16 15:57:56.625000,-67.23
2019-08-16 15:57:56.640625,-77.44
2019-08-16 15:57:56.656250,-77.33
2019-08-16 15:57:56.671875,-70.82
2019-08-16 15:57:56.687500,-61.12
2019-08-16 15:57:56.703125,-50.5
2019-08-16 15:57:56.718750,-40.99
2019-08-16 15:57:56.734375,-34.71
2019-08-16 15:57:56.750000,-33.46
2019-08-16 15:57:56.765625,-37.46
2019-08-16 15:57:56.781250,-44.58
2019-08-16 15:57:56.796875,-50.96
2019-08-16 15:57:56.812500,-52.9
2019-08-16 15:57:56.828125,-48.92
2019-08-16 15:57:56.843750,-40.7
2019-08-16 15:57:56.859375,-31.93
2019-08-16 15:57:56.875000,-25.86
2019-08-16 15:57:56.890625,-23.12
2019-08-16 15:57:56.906250,-21.12
2019-08-16 15:57:56.921875,-15.63
2019-08-16 15:57:56.937500,-3.64
2019-08-16 15:57:56.953125,14.45
2019-08-16 15:57:56.968750,34.41
2019-08-16 15:57:56.984375,49.88
2019-08-16 15:57:57.000000,55.55
2019-08-16 15:57:57.015625,49.55
2019-08-16 15:57:57.031250,34.09
2019-08-16 15:57:57.046875,14.34
2019-08-16 15:57:57.062500,-4.16
2019-08-16 15:57:57.078125,-17.67
2019-08-16 15:57:57.093750,-25.21
2019-08-16 15:57:57.109375,-28.03
2019-08-16 15:57:57.125000,-28.38
2019-08-16 15:57:57.140625,-27.92
2019-08-16 15:57:57.156250,-26.96
2019-08-16 15:57:57.171875,-24.75
2019-08-16 15:57:57.187500,-20.2
2019-08-16 15:57:57.203125,-12.84
2019-08-16 15:57:57.218750,-3.52
2019-08-16 15:57:57.234375,5.8
2019-08-16 15:57:57.250000,12.78
2019-08-16 15:57:57.265625,15.89
2019-08-16 15:57:57.281250,15.16
2019-08-16 15:57:57.296875,12.12
2019-08-16 15:57:57.312500,8.97
2019-08-16 15:57:57.328125,7.39
2019-08-16 15:57:57.343750,7.73
2019-08-16 15:57:57.359375,9.06
2019-08-16 15:57:57.375000,10.0
2019-08-16 15:57:57.390625,9.73
2019-08-16 15:57:57.406250,8.45
2019-08-16 15:57:57.421875,7.12
2019-08-16 15:57:57.437500,6.85
2019-08-16 15:57:57.453125,8.14
2019-08-16 15:57:57.468750,10.79
2019-08-16 15:57:57.484375,14.13
2019-08-16 15:57:57.500000,17.69
2019-08-16 15:57:57.515625,21.3
2019-08-16 15:57:57.531250,24.77
2019-08-16 15:57:57.546875,27.54
2019-08-16 15:57:57.562500,28.52
2019-08-16 15:57:57.578125,26.51
2019-08-16 15:57:57.593750,21.07
2019-08-16 15:57:57.609375,13.21
2019-08-16 15:57:57.625000,5.17
2019-08-16 15:57:57.640625,-0.43
2019-08-16 15:57:57.656250,-1.72
2019-08-16 15:57:57.671875,1.53
2019-08-16 15:57:57.687500,7.91
2019-08-16 15:57:57.703125,15.09
2019-08-16 15:57:57.718750,20.93
2019-08-16 15:57:57.734375,24.33
2019-08-16 15:57:57.750000,25.53
2019-08-16 15:57:57.765625,25.71
2019-08-16 15:57:57.781250,26.0
2019-08-16 15:57:57.796875,26.7
2019-08-16 15:57:57.812500,27.0
2019-08-16 15:57:57.828125,25.44
2019-08-16 15:57:57.843750,21.02
2019-08-16 15:57:57.859375,14.1
2019-08-16 15:57:57.875000,6.63
2019-08-16 15:57:57.890625,1.25
2019-08-16 15:57:57.906250,-0.02
2019-08-16 15:57:57.921875,2.81
2019-08-16 15:57:57.937500,7.67
2019-08-16 15:57:57.953125,11.4
2019-08-16 15:57:57.968750,11.35
2019-08-16 15:57:57.984375,6.82
2019-08-16 15:57:58.000000,-0.73
2019-08-16 15:57:58.015625,-8.44
2019-08-16 15:57:58.031250,-13.49
2019-08-16 15:57:58.046875,-14.38
2019-08-16 15:57:58.062500,-11.45
2019-08-16 15:57:58.078125,-6.55
2019-08-16 15:57:58.093750,-1.96
2019-08-16 15:57:58.109375,0.77
2019-08-16 15:57:58.125000,1.6
2019-08-16 15:57:58.140625,1.95
2019-08-16 15:57:58.156250,3.92
2019-08-16 15:57:58.171875,9.01
2019-08-16 15:57:58.187500,17.1
2019-08-16 15:57:58.203125,26.21
2019-08-16 15:57:58.218750,33.32
2019-08-16 15:57:58.234375,35.84
2019-08-16 15:57:58.250000,33.01
2019-08-16 15:57:58.265625,26.31
2019-08-16 15:57:58.281250,18.73
2019-08-16 15:57:58.296875,13.25
2019-08-16 15:57:58.312500,11.42
2019-08-16 15:57:58.328125,12.97
2019-08-16 15:57:58.343750,16.53
2019-08-16 15:57:58.359375,20.81
2019-08-16 15:57:58.375000,25.27
2019-08-16 15:57:58.390625,29.81
2019-08-16 15:57:58.406250,33.61
2019-08-16 15:57:58.421875,33.86
2019-08-16 15:57:58.437500,25.69
2019-08-16 15:57:58.453125,3.77
2019-08-16 15:57:58.468750,-34.98
2019-08-16 15:57:58.484375,-88.59
2019-08-16 15:57:58.500000,-148.93
2019-08-16 15:57:58.515625,-203.28
2019-08-16 15:57:58.531250,-238.28
2019-08-16 15:57:58.546875,-244.83
2019-08-16 15:57:58.562500,-221.64
2019-08-16 15:57:58.578125,-175.94
2019-08-16 15:57:58.593750,-120.62
2019-08-16 15:57:58.609375,-69.36
2019-08-16 15:57:58.625000,-32.0
2019-08-16 15:57:58.640625,-12.07
2019-08-16 15:57:58.656250,-7.56
2019-08-16 15:57:58.671875,-13.6
2019-08-16 15:57:58.687500,-25.8
2019-08-16 15:57:58.703125,-41.83
2019-08-16 15:57:58.718750,-60.83
2019-08-16 15:57:58.734375,-81.21
2019-08-16 15:57:58.750000,-98.98
2019-08-16 15:57:58.765625,-107.97
2019-08-16 15:57:58.781250,-102.27
2019-08-16 15:57:58.796875,-79.48
2019-08-16 15:57:58.812500,-42.72
2019-08-16 15:57:58.828125,0.08
2019-08-16 15:57:58.843750,39.35
2019-08-16 15:57:58.859375,67.84
2019-08-16 15:57:58.875000,82.78
2019-08-16 15:57:58.890625,85.75
2019-08-16 15:57:58.906250,80.74
2019-08-16 15:57:58.921875,71.83
2019-08-16 15:57:58.937500,61.75
2019-08-16 15:57:58.953125,52.04
2019-08-16 15:57:58.968750,43.97
2019-08-16 15:57:58.984375,39.4
2019-08-16 15:57:59.000000,40.62
2019-08-16 15:57:59.015625,49.24
2019-08-16 15:57:59.031250,64.88
2019-08-16 15:57:59.046875,84.77
2019-08-16 15:57:59.062500,104.33
2019-08-16 15:57:59.078125,118.48
2019-08-16 15:57:59.093750,123.19
2019-08-16 15:57:59.109375,116.34
2019-08-16 15:57:59.125000,97.78
2019-08-16 15:57:59.140625,68.82
2019-08-16 15:57:59.156250,31.43
2019-08-16 15:57:59.171875,-12.48
2019-08-16 15:57:59.187500,-61.6
2019-08-16 15:57:59.203125,-115.0
2019-08-16 15:57:59.218750,-171.42
2019-08-16 15:57:59.234375,-227.86
2019-08-16 15:57:59.250000,-278.77
2019-08-16 15:57:59.265625,-316.57
2019-08-16 15:57:59.281250,-333.87
2019-08-16 15:57:59.296875,-326.86
2019-08-16 15:57:59.312500,-297.74
2019-08-16 15:57:59.328125,-254.68
2019-08-16 15:57:59.343750,-208.57
2019-08-16 15:57:59.359375,-167.93
2019-08-16 15:57:59.375000,-134.21
2019-08-16 15:57:59.390625,-101.05
2019-08-16 15:57:59.406250,-58.03
2019-08-16 15:57:59.421875,2.75
2019-08-16 15:57:59.437500,80.73
2019-08-16 15:57:59.453125,165.02
2019-08-16 15:57:59.468750,238.05
2019-08-16 15:57:59.484375,283.14
2019-08-16 15:57:59.500000,291.75
2019-08-16 15:57:59.515625,267.12
2019-08-16 15:57:59.531250,222.02
2019-08-16 15:57:59.546875,172.51
2019-08-16 15:57:59.562500,131.17
2019-08-16 15:57:59.578125,102.96
2019-08-16 15:57:59.593750,85.77
2019-08-16 15:57:59.609375,74.31
2019-08-16 15:57:59.625000,64.57
2019-08-16 15:57:59.640625,56.21
2019-08-16 15:57:59.656250,51.99
2019-08-16 15:57:59.671875,54.65
2019-08-16 15:57:59.687500,64.18
2019-08-16 15:57:59.703125,77.45
2019-08-16 15:57:59.718750,90.08
2019-08-16 15:57:59.734375,99.44
2019-08-16 15:57:59.750000,106.21
2019-08-16 15:57:59.765625,113.9
2019-08-16 15:57:59.781250,126.11
2019-08-16 15:57:59.796875,143.15
2019-08-16 15:57:59.812500,160.6
2019-08-16 15:57:59.828125,170.3
2019-08-16 15:57:59.843750,163.65
2019-08-16 15:57:59.859375,135.3
2019-08-16 15:57:59.875000,86.16
2019-08-16 15:57:59.890625,23.75
2019-08-16 15:57:59.906250,-39.9
2019-08-16 15:57:59.921875,-91.9
2019-08-16 15:57:59.937500,-122.23
2019-08-16 15:57:59.953125,-126.2
2019-08-16 15:57:59.968750,-105.08
2019-08-16 15:57:59.984375,-64.93
2019-08-16 15:58:00.000000,-14.93
2019-08-16 15:58:00.015625,34.84
2019-08-16 15:58:00.031250,75.06
2019-08-16 15:58:00.046875,98.89
2019-08-16 15:58:00.062500,103.31
2019-08-16 15:58:00.078125,90.01
2019-08-16 15:58:00.093750,65.39
2019-08-16 15:58:00.109375,38.99
2019-08-16 15:58:00.125000,20.67
2019-08-16 15:58:00.140625,17.29
2019-08-16 15:58:00.156250,30.24
2019-08-16 15:58:00.171875,54.74
2019-08-16 15:58:00.187500,81.51
2019-08-16 15:58:00.203125,100.1
2019-08-16 15:58:00.218750,102.72
2019-08-16 15:58:00.234375,87.14
2019-08-16 15:58:00.250000,57.2
2019-08-16 15:58:00.265625,21.23
2019-08-16 15:58:00.281250,-11.19
2019-08-16 15:58:00.296875,-32.59
2019-08-16 15:58:00.312500,-39.54
2019-08-16 15:58:00.328125,-32.85
2019-08-16 15:58:00.343750,-16.45
2019-08-16 15:58:00.359375,4.07
2019-08-16 15:58:00.375000,22.44
2019-08-16 15:58:00.390625,32.27
2019-08-16 15:58:00.406250,28.1
2019-08-16 15:58:00.421875,7.07
2019-08-16 15:58:00.437500,-29.29
2019-08-16 15:58:00.453125,-74.53
2019-08-16 15:58:00.468750,-118.78
2019-08-16 15:58:00.484375,-152.23
2019-08-16 15:58:00.500000,-168.76
2019-08-16 15:58:00.515625,-167.88
2019-08-16 15:58:00.531250,-154.07
2019-08-16 15:58:00.546875,-133.92
2019-08-16 15:58:00.562500,-112.97
2019-08-16 15:58:00.578125,-94.1
2019-08-16 15:58:00.593750,-77.75
2019-08-16 15:58:00.609375,-63.46
2019-08-16 15:58:00.625000,-51.08
2019-08-16 15:58:00.640625,-41.12
2019-08-16 15:58:00.656250,-34.11
2019-08-16 15:58:00.671875,-30.02
2019-08-16 15:58:00.687500,-28.27
2019-08-16 15:58:00.703125,-28.37
2019-08-16 15:58:00.718750,-30.43
2019-08-16 15:58:00.734375,-35.22
2019-08-16 15:58:00.750000,-43.41
2019-08-16 15:58:00.765625,-54.85
2019-08-16 15:58:00.781250,-68.22
2019-08-16 15:58:00.796875,-81.3
2019-08-16 15:58:00.812500,-91.81
2019-08-16 15:58:00.828125,-98.14
2019-08-16 15:58:00.843750,-99.83
2019-08-16 15:58:00.859375,-97.42
2019-08-16 15:58:00.875000,-91.93
2019-08-16 15:58:00.890625,-84.15
2019-08-16 15:58:00.906250,-74.2
2019-08-16 15:58:00.921875,-61.47
2019-08-16 15:58:00.937500,-44.64
2019-08-16 15:58:00.953125,-21.73
2019-08-16 15:58:00.968750,9.8
2019-08-16 15:58:00.984375,52.29
2019-08-16 15:58:01.000000,106.57
2019-08-16 15:58:01.015625,170.54
2019-08-16 15:58:01.031250,238.22
2019-08-16 15:58:01.046875,300.66
2019-08-16 15:58:01.062500,348.4
2019-08-16 15:58:01.078125,374.71
2019-08-16 15:58:01.093750,377.98
2019-08-16 15:58:01.109375,361.9
2019-08-16 15:58:01.125000,333.09
2019-08-16 15:58:01.140625,297.31
2019-08-16 15:58:01.156250,256.81
2019-08-16 15:58:01.171875,210.06
2019-08-16 15:58:01.187500,154.43
2019-08-16 15:58:01.203125,89.78
2019-08-16 15:58:01.218750,20.79
2019-08-16 15:58:01.234375,-43.58
2019-08-16 15:58:01.250000,-93.46
2019-08-16 15:58:01.265625,-121.99
2019-08-16 15:58:01.281250,-127.89
2019-08-16 15:58:01.296875,-114.85
2019-08-16 15:58:01.312500,-88.49
2019-08-16 15:58:01.328125,-53.16
2019-08-16 15:58:01.343750,-10.77
2019-08-16 15:58:01.359375,37.64
2019-08-16 15:58:01.375000,88.94
2019-08-16 15:58:01.390625,136.5
2019-08-16 15:58:01.406250,171.7
2019-08-16 15:58:01.421875,187.95
2019-08-16 15:58:01.437500,184.69
2019-08-16 15:58:01.453125,168.28
2019-08-16 15:58:01.468750,149.1
2019-08-16 15:58:01.484375,136.19
2019-08-16 15:58:01.500000,132.73
2019-08-16 15:58:01.515625,134.44
2019-08-16 15:58:01.531250,132.84
2019-08-16 15:58:01.546875,119.7
2019-08-16 15:58:01.562500,90.87
2019-08-16 15:58:01.578125,47.36
2019-08-16 15:58:01.593750,-6.45
2019-08-16 15:58:01.609375,-65.46
2019-08-16 15:58:01.625000,-125.87
2019-08-16 15:58:01.640625,-185.3
2019-08-16 15:58:01.656250,-241.72
2019-08-16 15:58:01.671875,-292.47
2019-08-16 15:58:01.687500,-334.39
2019-08-16 15:58:01.703125,-364.62
2019-08-16 15:58:01.718750,-381.57
2019-08-16 15:58:01.734375,-385.9
2019-08-16 15:58:01.750000,-379.66
2019-08-16 15:58:01.765625,-365.26
2019-08-16 15:58:01.781250,-344.53
2019-08-16 15:58:01.796875,-318.18
2019-08-16 15:58:01.812500,-285.76
2019-08-16 15:58:01.828125,-246.2
2019-08-16 15:58:01.843750,-198.47
2019-08-16 15:58:01.859375,-142.38
2019-08-16 15:58:01.875000,-79.19
2019-08-16 15:58:01.890625,-11.9
2019-08-16 15:58:01.906250,54.89
2019-08-16 15:58:01.921875,115.52
2019-08-16 15:58:01.937500,164.67
2019-08-16 15:58:01.953125,198.49
2019-08-16 15:58:01.968750,215.45
2019-08-16 15:58:01.984375,216.36
2019-08-16 15:58:02.000000,203.45
2019-08-16 15:58:02.015625,178.78
2019-08-16 15:58:02.031250,143.12
2019-08-16 15:58:02.046875,96.02
2019-08-16 15:58:02.062500,37.53
2019-08-16 15:58:02.078125,-29.69
2019-08-16 15:58:02.093750,-98.79
2019-08-16 15:58:02.109375,-159.52
2019-08-16 15:58:02.125000,-201.14
2019-08-16 15:58:02.140625,-215.94
2019-08-16 15:58:02.156250,-201.94
2019-08-16 15:58:02.171875,-163.19
2019-08-16 15:58:02.187500,-108.18
2019-08-16 15:58:02.203125,-47.23
2019-08-16 15:58:02.218750,10.11
2019-08-16 15:58:02.234375,56.72
2019-08-16 15:58:02.250000,88.48
2019-08-16 15:58:02.265625,104.39
2019-08-16 15:58:02.281250,106.28
2019-08-16 15:58:02.296875,98.14
2019-08-16 15:58:02.312500,85.05
2019-08-16 15:58:02.328125,71.5
2019-08-16 15:58:02.343750,60.33
2019-08-16 15:58:02.359375,52.31
2019-08-16 15:58:02.375000,46.74
2019-08-16 15:58:02.390625,42.46
2019-08-16 15:58:02.406250,38.51
2019-08-16 15:58:02.421875,34.13
2019-08-16 15:58:02.437500,28.73
2019-08-16 15:58:02.453125,22.33
2019-08-16 15:58:02.468750,15.95
2019-08-16 15:58:02.484375,11.56
2019-08-16 15:58:02.500000,11.04
2019-08-16 15:58:02.515625,14.64
2019-08-16 15:58:02.531250,19.89
2019-08-16 15:58:02.546875,22.58
2019-08-16 15:58:02.562500,19.29
2019-08-16 15:58:02.578125,9.82
2019-08-16 15:58:02.593750,-1.79
2019-08-16 15:58:02.609375,-9.04
2019-08-16 15:58:02.625000,-6.7
2019-08-16 15:58:02.640625,6.16
2019-08-16 15:58:02.656250,25.29
2019-08-16 15:58:02.671875,43.11
2019-08-16 15:58:02.687500,52.0
2019-08-16 15:58:02.703125,47.19
2019-08-16 15:58:02.718750,28.1
2019-08-16 15:58:02.734375,-1.82
2019-08-16 15:58:02.750000,-36.28
2019-08-16 15:58:02.765625,-67.59
2019-08-16 15:58:02.781250,-88.25
2019-08-16 15:58:02.796875,-92.59
2019-08-16 15:58:02.812500,-78.63
2019-08-16 15:58:02.828125,-49.49
2019-08-16 15:58:02.843750,-13.12
2019-08-16 15:58:02.859375,19.75
2019-08-16 15:58:02.875000,39.3
2019-08-16 15:58:02.890625,40.13
2019-08-16 15:58:02.906250,23.35
2019-08-16 15:58:02.921875,-3.95
2019-08-16 15:58:02.937500,-31.51
2019-08-16 15:58:02.953125,-49.66
2019-08-16 15:58:02.968750,-52.86
2019-08-16 15:58:02.984375,-41.18
2019-08-16 15:58:03.000000,-19.83
2019-08-16 15:58:03.015625,3.3
2019-08-16 15:58:03.031250,20.9
2019-08-16 15:58:03.046875,29.02
2019-08-16 15:58:03.062500,28.23
2019-08-16 15:58:03.078125,22.6
2019-08-16 15:58:03.093750,17.35
2019-08-16 15:58:03.109375,16.25
2019-08-16 15:58:03.125000,20.1
2019-08-16 15:58:03.140625,26.82
2019-08-16 15:58:03.156250,33.13
2019-08-16 15:58:03.171875,36.54
2019-08-16 15:58:03.187500,36.76
2019-08-16 15:58:03.203125,35.38
2019-08-16 15:58:03.218750,34.72
2019-08-16 15:58:03.234375,35.87
2019-08-16 15:58:03.250000,38.01
2019-08-16 15:58:03.265625,38.96
2019-08-16 15:58:03.281250,36.29
2019-08-16 15:58:03.296875,28.57
2019-08-16 15:58:03.312500,15.61
2019-08-16 15:58:03.328125,-2.15
2019-08-16 15:58:03.343750,-24.2
2019-08-16 15:58:03.359375,-50.14
2019-08-16 15:58:03.375000,-79.06
2019-08-16 15:58:03.390625,-108.77
2019-08-16 15:58:03.406250,-135.79
2019-08-16 15:58:03.421875,-156.19
2019-08-16 15:58:03.437500,-166.77
2019-08-16 15:58:03.453125,-166.04
2019-08-16 15:58:03.468750,-154.3
2019-08-16 15:58:03.484375,-132.44
2019-08-16 15:58:03.500000,-100.83
2019-08-16 15:58:03.515625,-58.84
2019-08-16 15:58:03.531250,-6.11
2019-08-16 15:58:03.546875,55.5
2019-08-16 15:58:03.562500,120.56
2019-08-16 15:58:03.578125,180.55
2019-08-16 15:58:03.593750,226.37
2019-08-16 15:58:03.609375,251.77
2019-08-16 15:58:03.625000,255.41
2019-08-16 15:58:03.640625,240.34
2019-08-16 15:58:03.656250,211.52
2019-08-16 15:58:03.671875,173.02
2019-08-16 15:58:03.687500,127.01
2019-08-16 15:58:03.703125,74.64
2019-08-16 15:58:03.718750,18.57
2019-08-16 15:58:03.734375,-35.83
2019-08-16 15:58:03.750000,-81.31
2019-08-16 15:58:03.765625,-111.68
2019-08-16 15:58:03.781250,-125.06
2019-08-16 15:58:03.796875,-125.19
2019-08-16 15:58:03.812500,-120.01
2019-08-16 15:58:03.828125,-118.19
2019-08-16 15:58:03.843750,-125.47
2019-08-16 15:58:03.859375,-142.71
2019-08-16 15:58:03.875000,-166.48
2019-08-16 15:58:03.890625,-190.87
2019-08-16 15:58:03.906250,-209.66
2019-08-16 15:58:03.921875,-217.75
2019-08-16 15:58:03.937500,-211.35
2019-08-16 15:58:03.953125,-188.13
2019-08-16 15:58:03.968750,-147.44
2019-08-16 15:58:03.984375,-91.31
2019-08-16 15:58:04.000000,-25.31
2019-08-16 15:58:04.015625,41.31
2019-08-16 15:58:04.031250,97.11
2019-08-16 15:58:04.046875,131.5
2019-08-16 15:58:04.062500,138.74
2019-08-16 15:58:04.078125,120.47
2019-08-16 15:58:04.093750,85.53
2019-08-16 15:58:04.109375,46.86
2019-08-16 15:58:04.125000,16.54
2019-08-16 15:58:04.140625,1.5
2019-08-16 15:58:04.156250,1.86
2019-08-16 15:58:04.171875,12.44
2019-08-16 15:58:04.187500,26.31
2019-08-16 15:58:04.203125,38.13
2019-08-16 15:58:04.218750,45.67
2019-08-16 15:58:04.234375,49.07
2019-08-16 15:58:04.250000,48.88
2019-08-16 15:58:04.265625,44.51
2019-08-16 15:58:04.281250,34.21
2019-08-16 15:58:04.296875,16.58
2019-08-16 15:58:04.312500,-7.57
2019-08-16 15:58:04.328125,-34.36
2019-08-16 15:58:04.343750,-57.75
2019-08-16 15:58:04.359375,-71.9
2019-08-16 15:58:04.375000,-73.51
2019-08-16 15:58:04.390625,-62.86
2019-08-16 15:58:04.406250,-43.02
2019-08-16 15:58:04.421875,-18.22
2019-08-16 15:58:04.437500,8.63
2019-08-16 15:58:04.453125,36.95
2019-08-16 15:58:04.468750,68.1
2019-08-16 15:58:04.484375,103.7
2019-08-16 15:58:04.500000,143.97
2019-08-16 15:58:04.515625,186.82
2019-08-16 15:58:04.531250,228.27
2019-08-16 15:58:04.546875,263.68
2019-08-16 15:58:04.562500,289.3
2019-08-16 15:58:04.578125,303.26
2019-08-16 15:58:04.593750,305.63
2019-08-16 15:58:04.609375,297.86
2019-08-16 15:58:04.625000,282.0
2019-08-16 15:58:04.640625,259.97
2019-08-16 15:58:04.656250,233.31
2019-08-16 15:58:04.671875,203.13
2019-08-16 15:58:04.687500,170.53
2019-08-16 15:58:04.703125,136.66
2019-08-16 15:58:04.718750,102.97
2019-08-16 15:58:04.734375,70.89
2019-08-16 15:58:04.750000,41.65
2019-08-16 15:58:04.765625,15.96
2019-08-16 15:58:04.781250,-6.04
2019-08-16 15:58:04.796875,-24.66
2019-08-16 15:58:04.812500,-40.42
2019-08-16 15:58:04.828125,-53.78
2019-08-16 15:58:04.843750,-65.01
2019-08-16 15:58:04.859375,-74.17
2019-08-16 15:58:04.875000,-81.26
2019-08-16 15:58:04.890625,-86.38
2019-08-16 15:58:04.906250,-89.74
2019-08-16 15:58:04.921875,-91.72
2019-08-16 15:58:04.937500,-92.7
2019-08-16 15:58:04.953125,-92.94
2019-08-16 15:58:04.968750,-92.6
2019-08-16 15:58:04.984375,-91.68
2019-08-16 15:58:05.000000,-90.15
2019-08-16 15:58:05.015625,-88.03
2019-08-16 15:58:05.031250,-85.42
2019-08-16 15:58:05.046875,-82.49
2019-08-16 15:58:05.062500,-79.41
2019-08-16 15:58:05.078125,-76.3
2019-08-16 15:58:05.093750,-73.15
2019-08-16 15:58:05.109375,-69.93
2019-08-16 15:58:05.125000,-66.58
2019-08-16 15:58:05.140625,-63.1
2019-08-16 15:58:05.156250,-59.61
2019-08-16 15:58:05.171875,-56.28
2019-08-16 15:58:05.187500,-53.24
2019-08-16 15:58:05.203125,-50.53
2019-08-16 15:58:05.218750,-48.04
2019-08-16 15:58:05.234375,-45.53
2019-08-16 15:58:05.250000,-42.78
2019-08-16 15:58:05.265625,-39.68
2019-08-16 15:58:05.281250,-36.33
2019-08-16 15:58:05.296875,-33.1
2019-08-16 15:58:05.312500,-30.39
2019-08-16 15:58:05.328125,-28.47
2019-08-16 15:58:05.343750,-27.32
2019-08-16 15:58:05.359375,-26.53
2019-08-16 15:58:05.375000,-25.5
2019-08-16 15:58:05.390625,-23.69
2019-08-16 15:58:05.406250,-20.88
2019-08-16 15:58:05.421875,-17.34
2019-08-16 15:58:05.437500,-13.93
2019-08-16 15:58:05.453125,-11.63
2019-08-16 15:58:05.468750,-11.03
2019-08-16 15:58:05.484375,-12.02
2019-08-16 15:58:05.500000,-13.74
2019-08-16 15:58:05.515625,-14.86
2019-08-16 15:58:05.531250,-14.21
2019-08-16 15:58:05.546875,-11.39
2019-08-16 15:58:05.562500,-7.11
2019-08-16 15:58:05.578125,-2.97
2019-08-16 15:58:05.593750,-0.75
2019-08-16 15:58:05.609375,-1.55
2019-08-16 15:58:05.625000,-5.09
2019-08-16 15:58:05.640625,-9.75
2019-08-16 15:58:05.656250,-13.15
2019-08-16 15:58:05.671875,-13.28
2019-08-16 15:58:05.687500,-9.73
2019-08-16 15:58:05.703125,-3.78
2019-08-16 15:58:05.718750,2.05
2019-08-16 15:58:05.734375,5.1
2019-08-16 15:58:05.750000,3.97
2019-08-16 15:58:05.765625,-1.07
2019-08-16 15:58:05.781250,-8.5
2019-08-16 15:58:05.796875,-16.42
2019-08-16 15:58:05.812500,-22.98
2019-08-16 15:58:05.828125,-26.29
2019-08-16 15:58:05.843750,-24.26
2019-08-16 15:58:05.859375,-15.29
2019-08-16 15:58:05.875000,0.47
2019-08-16 15:58:05.890625,20.09
2019-08-16 15:58:05.906250,38.01
2019-08-16 15:58:05.921875,48.31
2019-08-16 15:58:05.937500,47.6
2019-08-16 15:58:05.953125,36.77
2019-08-16 15:58:05.968750,20.71
2019-08-16 15:58:05.984375,5.51
2019-08-16 15:58:06.000000,-4.76
2019-08-16 15:58:06.015625,-9.91
2019-08-16 15:58:06.031250,-12.84
2019-08-16 15:58:06.046875,-17.39
2019-08-16 15:58:06.062500,-25.59
2019-08-16 15:58:06.078125,-36.59
2019-08-16 15:58:06.093750,-47.22
2019-08-16 15:58:06.109375,-54.01
2019-08-16 15:58:06.125000,-54.63
2019-08-16 15:58:06.140625,-48.44
2019-08-16 15:58:06.156250,-36.66
2019-08-16 15:58:06.171875,-21.45
2019-08-16 15:58:06.187500,-5.63
2019-08-16 15:58:06.203125,8.71
2019-08-16 15:58:06.218750,21.1
2019-08-16 15:58:06.234375,32.73
2019-08-16 15:58:06.250000,45.59
2019-08-16 15:58:06.265625,60.94
2019-08-16 15:58:06.281250,77.7
2019-08-16 15:58:06.296875,91.38
2019-08-16 15:58:06.312500,97.15
2019-08-16 15:58:06.328125,90.72
2019-08-16 15:58:06.343750,72.07
2019-08-16 15:58:06.359375,45.5
2019-08-16 15:58:06.375000,19.54
2019-08-16 15:58:06.390625,1.64
2019-08-16 15:58:06.406250,-5.17
2019-08-16 15:58:06.421875,-3.2
2019-08-16 15:58:06.437500,1.34
2019-08-16 15:58:06.453125,1.76
2019-08-16 15:58:06.468750,-5.93
2019-08-16 15:58:06.484375,-21.21
2019-08-16 15:58:06.500000,-39.16
2019-08-16 15:58:06.515625,-52.6
2019-08-16 15:58:06.531250,-55.16
2019-08-16 15:58:06.546875,-43.69
2019-08-16 15:58:06.562500,-20.02
2019-08-16 15:58:06.578125,8.77
2019-08-16 15:58:06.593750,32.51
2019-08-16 15:58:06.609375,41.52
2019-08-16 15:58:06.625000,30.9
2019-08-16 15:58:06.640625,3.29
2019-08-16 15:58:06.656250,-32.4
2019-08-16 15:58:06.671875,-65.02
2019-08-16 15:58:06.687500,-85.99
2019-08-16 15:58:06.703125,-92.5
2019-08-16 15:58:06.718750,-87.57
2019-08-16 15:58:06.734375,-76.81
2019-08-16 15:58:06.750000,-64.17
2019-08-16 15:58:06.765625,-51.63
2019-08-16 15:58:06.781250,-37.93
2019-08-16 15:58:06.796875,-21.36
2019-08-16 15:58:06.812500,-2.33
2019-08-16 15:58:06.828125,16.14
2019-08-16 15:58:06.843750,30.03
2019-08-16 15:58:06.859375,36.35
2019-08-16 15:58:06.875000,35.11
2019-08-16 15:58:06.890625,29.06
2019-08-16 15:58:06.906250,22.17
2019-08-16 15:58:06.921875,18.12
2019-08-16 15:58:06.937500,18.26
2019-08-16 15:58:06.953125,21.45
2019-08-16 15:58:06.968750,24.94
2019-08-16 15:58:06.984375,25.76
2019-08-16 15:58:07.000000,22.21
2019-08-16 15:58:07.015625,14.55
2019-08-16 15:58:07.031250,4.77
2019-08-16 15:58:07.046875,-4.54
2019-08-16 15:58:07.062500,-10.93
2019-08-16 15:58:07.078125,-13.33
2019-08-16 15:58:07.093750,-12.15
2019-08-16 15:58:07.109375,-8.77
2019-08-16 15:58:07.125000,-4.64
2019-08-16 15:58:07.140625,-0.94
2019-08-16 15:58:07.156250,2.11
2019-08-16 15:58:07.171875,5.05
2019-08-16 15:58:07.187500,8.62
2019-08-16 15:58:07.203125,13.42
2019-08-16 15:58:07.218750,19.42
2019-08-16 15:58:07.234375,25.98
2019-08-16 15:58:07.250000,32.17
2019-08-16 15:58:07.265625,37.11
2019-08-16 15:58:07.281250,40.35
2019-08-16 15:58:07.296875,41.93
2019-08-16 15:58:07.312500,42.31
2019-08-16 15:58:07.328125,41.96
2019-08-16 15:58:07.343750,41.23
2019-08-16 15:58:07.359375,40.13
2019-08-16 15:58:07.375000,38.41
2019-08-16 15:58:07.390625,35.6
2019-08-16 15:58:07.406250,31.27
2019-08-16 15:58:07.421875,25.04
2019-08-16 15:58:07.437500,16.83
2019-08-16 15:58:07.453125,6.77
2019-08-16 15:58:07.468750,-4.8
2019-08-16 15:58:07.484375,-17.37
2019-08-16 15:58:07.500000,-30.25
2019-08-16 15:58:07.515625,-42.68
2019-08-16 15:58:07.531250,-53.84
2019-08-16 15:58:07.546875,-62.95
2019-08-16 15:58:07.562500,-69.37
2019-08-16 15:58:07.578125,-72.47
2019-08-16 15:58:07.593750,-71.77
2019-08-16 15:58:07.609375,-67.11
2019-08-16 15:58:07.625000,-58.61
2019-08-16 15:58:07.640625,-46.7
2019-08-16 15:58:07.656250,-32.03
2019-08-16 15:58:07.671875,-15.44
2019-08-16 15:58:07.687500,2.38
2019-08-16 15:58:07.703125,19.73
2019-08-16 15:58:07.718750,35.51
2019-08-16 15:58:07.734375,48.83
2019-08-16 15:58:07.750000,59.19
2019-08-16 15:58:07.765625,66.43
2019-08-16 15:58:07.781250,70.64
2019-08-16 15:58:07.796875,72.21
2019-08-16 15:58:07.812500,71.64
2019-08-16 15:58:07.828125,69.27
2019-08-16 15:58:07.843750,65.15
2019-08-16 15:58:07.859375,59.48
2019-08-16 15:58:07.875000,52.45
2019-08-16 15:58:07.890625,44.35
2019-08-16 15:58:07.906250,35.67
2019-08-16 15:58:07.921875,26.84
2019-08-16 15:58:07.937500,18.39
2019-08-16 15:58:07.953125,10.62
2019-08-16 15:58:07.968750,3.2
2019-08-16 15:58:07.984375,-4.57
2019-08-16 15:58:08.000000,-13.34
2019-08-16 15:58:08.015625,-23.5
2019-08-16 15:58:08.031250,-35.03
2019-08-16 15:58:08.046875,-46.33
2019-08-16 15:58:08.062500,-56.79
2019-08-16 15:58:08.078125,-65.45
2019-08-16 15:58:08.093750,-71.57
2019-08-16 15:58:08.109375,-75.39
2019-08-16 15:58:08.125000,-77.77
2019-08-16 15:58:08.140625,-79.71
2019-08-16 15:58:08.156250,-81.93
2019-08-16 15:58:08.171875,-84.46
2019-08-16 15:58:08.187500,-86.31
2019-08-16 15:58:08.203125,-86.14
2019-08-16 15:58:08.218750,-83.63
2019-08-16 15:58:08.234375,-77.28
2019-08-16 15:58:08.250000,-67.49
2019-08-16 15:58:08.265625,-55.63
2019-08-16 15:58:08.281250,-43.3
2019-08-16 15:58:08.296875,-32.17
2019-08-16 15:58:08.312500,-23.84
2019-08-16 15:58:08.328125,-19.44
2019-08-16 15:58:08.343750,-19.66
2019-08-16 15:58:08.359375,-23.83
2019-08-16 15:58:08.375000,-29.29
2019-08-16 15:58:08.390625,-32.11
2019-08-16 15:58:08.406250,-28.21
2019-08-16 15:58:08.421875,-15.27
2019-08-16 15:58:08.437500,6.29
2019-08-16 15:58:08.453125,30.85
2019-08-16 15:58:08.468750,51.77
2019-08-16 15:58:08.484375,63.89
2019-08-16 15:58:08.500000,65.71
2019-08-16 15:58:08.515625,59.63
2019-08-16 15:58:08.531250,49.91
2019-08-16 15:58:08.546875,40.51
2019-08-16 15:58:08.562500,33.36
2019-08-16 15:58:08.578125,28.14
2019-08-16 15:58:08.593750,23.41
2019-08-16 15:58:08.609375,18.51
2019-08-16 15:58:08.625000,13.86
2019-08-16 15:58:08.640625,10.61
2019-08-16 15:58:08.656250,9.62
2019-08-16 15:58:08.671875,10.6
2019-08-16 15:58:08.687500,12.31
2019-08-16 15:58:08.703125,13.17
2019-08-16 15:58:08.718750,11.92
2019-08-16 15:58:08.734375,8.3
2019-08-16 15:58:08.750000,3.25
2019-08-16 15:58:08.765625,-1.81
2019-08-16 15:58:08.781250,-5.62
2019-08-16 15:58:08.796875,-7.57
2019-08-16 15:58:08.812500,-8.02
2019-08-16 15:58:08.828125,-8.08
2019-08-16 15:58:08.843750,-8.8
2019-08-16 15:58:08.859375,-10.99
2019-08-16 15:58:08.875000,-14.82
2019-08-16 15:58:08.890625,-19.7
2019-08-16 15:58:08.906250,-24.72
2019-08-16 15:58:08.921875,-29.06
2019-08-16 15:58:08.937500,-32.38
2019-08-16 15:58:08.953125,-34.86
2019-08-16 15:58:08.968750,-37.02
2019-08-16 15:58:08.984375,-39.55
2019-08-16 15:58:09.000000,-42.91
2019-08-16 15:58:09.015625,-47.26
2019-08-16 15:58:09.031250,-52.3
2019-08-16 15:58:09.046875,-57.58
2019-08-16 15:58:09.062500,-62.68
2019-08-16 15:58:09.078125,-67.42
2019-08-16 15:58:09.093750,-71.83
2019-08-16 15:58:09.109375,-76.01
2019-08-16 15:58:09.125000,-80.09
2019-08-16 15:58:09.140625,-84.05
2019-08-16 15:58:09.156250,-87.63
2019-08-16 15:58:09.171875,-90.29
2019-08-16 15:58:09.187500,-91.42
2019-08-16 15:58:09.203125,-90.38
2019-08-16 15:58:09.218750,-86.62
2019-08-16 15:58:09.234375,-79.94
2019-08-16 15:58:09.250000,-69.96
2019-08-16 15:58:09.265625,-56.69
2019-08-16 15:58:09.281250,-40.37
2019-08-16 15:58:09.296875,-21.48
2019-08-16 15:58:09.312500,-0.72
2019-08-16 15:58:09.328125,21.02
2019-08-16 15:58:09.343750,42.76
2019-08-16 15:58:09.359375,63.53
2019-08-16 15:58:09.375000,81.72
2019-08-16 15:58:09.390625,96.82
2019-08-16 15:58:09.406250,108.51
2019-08-16 15:58:09.421875,116.74
2019-08-16 15:58:09.437500,121.64
2019-08-16 15:58:09.453125,123.5
2019-08-16 15:58:09.468750,122.72
2019-08-16 15:58:09.484375,119.78
2019-08-16 15:58:09.500000,115.22
2019-08-16 15:58:09.515625,110.07
2019-08-16 15:58:09.531250,104.56
2019-08-16 15:58:09.546875,98.95
2019-08-16 15:58:09.562500,93.55
2019-08-16 15:58:09.578125,88.62
2019-08-16 15:58:09.593750,84.25
2019-08-16 15:58:09.609375,80.44
2019-08-16 15:58:09.625000,77.16
2019-08-16 15:58:09.640625,74.32
2019-08-16 15:58:09.656250,71.9
2019-08-16 15:58:09.671875,69.88
2019-08-16 15:58:09.687500,68.23
2019-08-16 15:58:09.703125,66.96
2019-08-16 15:58:09.718750,66.03
2019-08-16 15:58:09.734375,65.16
2019-08-16 15:58:09.750000,63.92
2019-08-16 15:58:09.765625,61.92
2019-08-16 15:58:09.781250,58.75
2019-08-16 15:58:09.796875,54.19
2019-08-16 15:58:09.812500,48.69
2019-08-16 15:58:09.828125,42.12
2019-08-16 15:58:09.843750,34.67
2019-08-16 15:58:09.859375,26.63
2019-08-16 15:58:09.875000,17.97
2019-08-16 15:58:09.890625,8.54
2019-08-16 15:58:09.906250,-1.87
2019-08-16 15:58:09.921875,-13.36
2019-08-16 15:58:09.937500,-25.66
2019-08-16 15:58:09.953125,-38.21
2019-08-16 15:58:09.968750,-50.17
2019-08-16 15:58:09.984375,-61.04
2019-08-16 15:58:10.000000,-69.82
2019-08-16 15:58:10.015625,-76.47
2019-08-16 15:58:10.031250,-81.48
2019-08-16 15:58:10.046875,-85.55
2019-08-16 15:58:10.062500,-89.17
2019-08-16 15:58:10.078125,-92.21
2019-08-16 15:58:10.093750,-93.89
2019-08-16 15:58:10.109375,-92.96
2019-08-16 15:58:10.125000,-88.15
2019-08-16 15:58:10.140625,-78.63
2019-08-16 15:58:10.156250,-64.7
2019-08-16 15:58:10.171875,-47.59
2019-08-16 15:58:10.187500,-29.01
2019-08-16 15:58:10.203125,-10.59
2019-08-16 15:58:10.218750,6.62
2019-08-16 15:58:10.234375,22.36
2019-08-16 15:58:10.250000,36.99
2019-08-16 15:58:10.265625,50.52
2019-08-16 15:58:10.281250,63.91
2019-08-16 15:58:10.296875,77.85
2019-08-16 15:58:10.312500,92.64
2019-08-16 15:58:10.328125,107.57
2019-08-16 15:58:10.343750,120.3
2019-08-16 15:58:10.359375,126.9
2019-08-16 15:58:10.375000,122.92
2019-08-16 15:58:10.390625,105.64
2019-08-16 15:58:10.406250,76.28
2019-08-16 15:58:10.421875,39.55
2019-08-16 15:58:10.437500,2.96
2019-08-16 15:58:10.453125,-26.14
2019-08-16 15:58:10.468750,-43.6
2019-08-16 15:58:10.484375,-49.83
2019-08-16 15:58:10.500000,-48.81
2019-08-16 15:58:10.515625,-45.54
2019-08-16 15:58:10.531250,-43.44
2019-08-16 15:58:10.546875,-43.08
2019-08-16 15:58:10.562500,-42.86
2019-08-16 15:58:10.578125,-40.85
2019-08-16 15:58:10.593750,-36.41
2019-08-16 15:58:10.609375,-30.67
2019-08-16 15:58:10.625000,-25.73
2019-08-16 15:58:10.640625,-23.3
2019-08-16 15:58:10.656250,-24.0
2019-08-16 15:58:10.671875,-27.39
2019-08-16 15:58:10.687500,-32.69
2019-08-16 15:58:10.703125,-39.42
2019-08-16 15:58:10.718750,-47.23
2019-08-16 15:58:10.734375,-55.16
2019-08-16 15:58:10.750000,-61.13
2019-08-16 15:58:10.765625,-62.18
2019-08-16 15:58:10.781250,-55.79
2019-08-16 15:58:10.796875,-41.57
2019-08-16 15:58:10.812500,-22.02
2019-08-16 15:58:10.828125,-1.93
2019-08-16 15:58:10.843750,13.44
2019-08-16 15:58:10.859375,20.68
2019-08-16 15:58:10.875000,19.61
2019-08-16 15:58:10.890625,12.61
2019-08-16 15:58:10.906250,3.0
2019-08-16 15:58:10.921875,-6.61
2019-08-16 15:58:10.937500,-15.19
2019-08-16 15:58:10.953125,-22.7
2019-08-16 15:58:10.968750,-29.18
2019-08-16 15:58:10.984375,-34.15
2019-08-16 15:58:11.000000,-36.71
2019-08-16 15:58:11.015625,-36.4
2019-08-16 15:58:11.031250,-33.81
2019-08-16 15:58:11.046875,-30.55
2019-08-16 15:58:11.062500,-28.38
2019-08-16 15:58:11.078125,-28.55
2019-08-16 15:58:11.093750,-31.03
2019-08-16 15:58:11.109375,-34.39
2019-08-16 15:58:11.125000,-36.55
2019-08-16 15:58:11.140625,-35.67
2019-08-16 15:58:11.156250,-31.01
2019-08-16 15:58:11.171875,-23.21
2019-08-16 15:58:11.187500,-14.02
2019-08-16 15:58:11.203125,-5.36
2019-08-16 15:58:11.218750,1.38
2019-08-16 15:58:11.234375,6.06
2019-08-16 15:58:11.250000,9.79
2019-08-16 15:58:11.265625,14.24
2019-08-16 15:58:11.281250,20.74
2019-08-16 15:58:11.296875,29.5
2019-08-16 15:58:11.312500,39.46
2019-08-16 15:58:11.328125,48.72
2019-08-16 15:58:11.343750,55.77
2019-08-16 15:58:11.359375,59.76
2019-08-16 15:58:11.375000,61.22
2019-08-16 15:58:11.390625,61.71
2019-08-16 15:58:11.406250,62.98
2019-08-16 15:58:11.421875,66.38
2019-08-16 15:58:11.437500,72.57
2019-08-16 15:58:11.453125,81.65
2019-08-16 15:58:11.468750,92.28
2019-08-16 15:58:11.484375,103.41
2019-08-16 15:58:11.500000,112.09
2019-08-16 15:58:11.515625,114.08
2019-08-16 15:58:11.531250,105.32
2019-08-16 15:58:11.546875,83.96
2019-08-16 15:58:11.562500,51.87
2019-08-16 15:58:11.578125,14.59
2019-08-16 15:58:11.593750,-20.61
2019-08-16 15:58:11.609375,-47.64
2019-08-16 15:58:11.625000,-63.62
2019-08-16 15:58:11.640625,-69.69
2019-08-16 15:58:11.656250,-69.32
2019-08-16 15:58:11.671875,-66.12
2019-08-16 15:58:11.687500,-62.32
2019-08-16 15:58:11.703125,-58.64
2019-08-16 15:58:11.718750,-55.18
2019-08-16 15:58:11.734375,-52.36
2019-08-16 15:58:11.750000,-51.06
2019-08-16 15:58:11.765625,-51.98
2019-08-16 15:58:11.781250,-54.93
2019-08-16 15:58:11.796875,-58.65
2019-08-16 15:58:11.812500,-61.29
2019-08-16 15:58:11.828125,-61.49
2019-08-16 15:58:11.843750,-58.9
2019-08-16 15:58:11.859375,-54.52
2019-08-16 15:58:11.875000,-50.23
2019-08-16 15:58:11.890625,-48.1
2019-08-16 15:58:11.906250,-49.72
2019-08-16 15:58:11.921875,-55.54
2019-08-16 15:58:11.937500,-64.11
2019-08-16 15:58:11.953125,-71.85
2019-08-16 15:58:11.968750,-73.84
2019-08-16 15:58:11.984375,-65.56
2019-08-16 15:58:12.000000,-45.15
2019-08-16 15:58:12.015625,-14.86
2019-08-16 15:58:12.031250,19.39
2019-08-16 15:58:12.046875,50.16
2019-08-16 15:58:12.062500,71.67
2019-08-16 15:58:12.078125,81.72
2019-08-16 15:58:12.093750,82.14
2019-08-16 15:58:12.109375,77.26
2019-08-16 15:58:12.125000,71.4
2019-08-16 15:58:12.140625,66.87
2019-08-16 15:58:12.156250,63.72
2019-08-16 15:58:12.171875,60.75
2019-08-16 15:58:12.187500,57.06
2019-08-16 15:58:12.203125,52.82
2019-08-16 15:58:12.218750,49.13
2019-08-16 15:58:12.234375,46.85
2019-08-16 15:58:12.250000,45.93
2019-08-16 15:58:12.265625,45.25
2019-08-16 15:58:12.281250,43.17
2019-08-16 15:58:12.296875,38.3
2019-08-16 15:58:12.312500,30.32
2019-08-16 15:58:12.328125,20.14
2019-08-16 15:58:12.343750,9.02
2019-08-16 15:58:12.359375,-0.82
2019-08-16 15:58:12.375000,-8.2
2019-08-16 15:58:12.390625,-13.07
2019-08-16 15:58:12.406250,-16.27
2019-08-16 15:58:12.421875,-19.03
2019-08-16 15:58:12.437500,-22.29
2019-08-16 15:58:12.453125,-26.21
2019-08-16 15:58:12.468750,-30.16
2019-08-16 15:58:12.484375,-33.04
2019-08-16 15:58:12.500000,-33.84
2019-08-16 15:58:12.515625,-32.27
2019-08-16 15:58:12.531250,-28.77
2019-08-16 15:58:12.546875,-24.3
2019-08-16 15:58:12.562500,-19.94
2019-08-16 15:58:12.578125,-16.42
2019-08-16 15:58:12.593750,-13.58
2019-08-16 15:58:12.609375,-10.91
2019-08-16 15:58:12.625000,-7.54
2019-08-16 15:58:12.640625,-2.78
2019-08-16 15:58:12.656250,3.42
2019-08-16 15:58:12.671875,10.5
2019-08-16 15:58:12.687500,17.38
2019-08-16 15:58:12.703125,23.16
2019-08-16 15:58:12.718750,27.19
2019-08-16 15:58:12.734375,29.43
2019-08-16 15:58:12.750000,30.33
2019-08-16 15:58:12.765625,30.6
2019-08-16 15:58:12.781250,31.11
2019-08-16 15:58:12.796875,33.05
2019-08-16 15:58:12.812500,37.82
2019-08-16 15:58:12.828125,46.38
2019-08-16 15:58:12.843750,57.93
2019-08-16 15:58:12.859375,69.38
2019-08-16 15:58:12.875000,75.62
2019-08-16 15:58:12.890625,71.36
2019-08-16 15:58:12.906250,53.78
2019-08-16 15:58:12.921875,24.12
2019-08-16 15:58:12.937500,-12.55
2019-08-16 15:58:12.953125,-49.58
2019-08-16 15:58:12.968750,-81.58
2019-08-16 15:58:12.984375,-105.72
2019-08-16 15:58:13.000000,-121.22
2019-08-16 15:58:13.015625,-127.7
2019-08-16 15:58:13.031250,-123.99
2019-08-16 15:58:13.046875,-107.78
2019-08-16 15:58:13.062500,-79.97
2019-08-16 15:58:13.078125,-44.6
2019-08-16 15:58:13.093750,-8.61
2019-08-16 15:58:13.109375,20.29
2019-08-16 15:58:13.125000,36.84
2019-08-16 15:58:13.140625,40.59
2019-08-16 15:58:13.156250,35.4
2019-08-16 15:58:13.171875,27.4
2019-08-16 15:58:13.187500,21.87
2019-08-16 15:58:13.203125,21.89
2019-08-16 15:58:13.218750,27.3
2019-08-16 15:58:13.234375,36.8
2019-08-16 15:58:13.250000,49.16
2019-08-16 15:58:13.265625,63.45
2019-08-16 15:58:13.281250,78.4
2019-08-16 15:58:13.296875,91.42
2019-08-16 15:58:13.312500,98.54
2019-08-16 15:58:13.328125,94.75
2019-08-16 15:58:13.343750,78.25
2019-08-16 15:58:13.359375,50.86
2019-08-16 15:58:13.375000,18.08
2019-08-16 15:58:13.390625,-12.99
2019-08-16 15:58:13.406250,-36.5
2019-08-16 15:58:13.421875,-50.01
2019-08-16 15:58:13.437500,-54.79
2019-08-16 15:58:13.453125,-54.26
2019-08-16 15:58:13.468750,-51.49
2019-08-16 15:58:13.484375,-47.76
2019-08-16 15:58:13.500000,-42.81
2019-08-16 15:58:13.515625,-36.08
2019-08-16 15:58:13.531250,-28.46
2019-08-16 15:58:13.546875,-22.76
2019-08-16 15:58:13.562500,-22.83
2019-08-16 15:58:13.578125,-31.04
2019-08-16 15:58:13.593750,-46.38
2019-08-16 15:58:13.609375,-63.84
2019-08-16 15:58:13.625000,-75.69
2019-08-16 15:58:13.640625,-74.4
2019-08-16 15:58:13.656250,-55.92
2019-08-16 15:58:13.671875,-21.66
2019-08-16 15:58:13.687500,21.51
2019-08-16 15:58:13.703125,63.23
2019-08-16 15:58:13.718750,92.88
2019-08-16 15:58:13.734375,103.24
2019-08-16 15:58:13.750000,92.55
2019-08-16 15:58:13.765625,64.74
2019-08-16 15:58:13.781250,27.7
2019-08-16 15:58:13.796875,-9.6
2019-08-16 15:58:13.812500,-39.77
2019-08-16 15:58:13.828125,-59.12
2019-08-16 15:58:13.843750,-67.94
2019-08-16 15:58:13.859375,-69.6
2019-08-16 15:58:13.875000,-68.37
2019-08-16 15:58:13.890625,-67.97
2019-08-16 15:58:13.906250,-70.69
2019-08-16 15:58:13.921875,-77.04
2019-08-16 15:58:13.937500,-85.78
2019-08-16 15:58:13.953125,-94.31
2019-08-16 15:58:13.968750,-98.97
2019-08-16 15:58:13.984375,-94.68
2019-08-16 15:58:14.000000,-80.01
2019-08-16 15:58:14.015625,-56.17
2019-08-16 15:58:14.031250,-27.27
2019-08-16 15:58:14.046875,0.92
2019-08-16 15:58:14.062500,23.45
2019-08-16 15:58:14.078125,37.79
2019-08-16 15:58:14.093750,44.43
2019-08-16 15:58:14.109375,45.71
2019-08-16 15:58:14.125000,44.09
2019-08-16 15:58:14.140625,40.53
2019-08-16 15:58:14.156250,35.17
2019-08-16 15:58:14.171875,28.12
2019-08-16 15:58:14.187500,20.4
2019-08-16 15:58:14.203125,14.12
2019-08-16 15:58:14.218750,11.37
2019-08-16 15:58:14.234375,13.06
2019-08-16 15:58:14.250000,18.19
2019-08-16 15:58:14.265625,24.09
2019-08-16 15:58:14.281250,27.43
2019-08-16 15:58:14.296875,25.92
2019-08-16 15:58:14.312500,19.32
2019-08-16 15:58:14.328125,9.64
2019-08-16 15:58:14.343750,0.36
2019-08-16 15:58:14.359375,-5.21
2019-08-16 15:58:14.375000,-5.22
2019-08-16 15:58:14.390625,-0.08
2019-08-16 15:58:14.406250,7.57
2019-08-16 15:58:14.421875,13.84
2019-08-16 15:58:14.437500,15.7
2019-08-16 15:58:14.453125,12.07
2019-08-16 15:58:14.468750,4.51
2019-08-16 15:58:14.484375,-3.12
2019-08-16 15:58:14.500000,-7.12
2019-08-16 15:58:14.515625,-4.89
2019-08-16 15:58:14.531250,4.38
2019-08-16 15:58:14.546875,19.52
2019-08-16 15:58:14.562500,37.78
2019-08-16 15:58:14.578125,55.48
2019-08-16 15:58:14.593750,68.21
2019-08-16 15:58:14.609375,70.69
2019-08-16 15:58:14.625000,59.44
2019-08-16 15:58:14.640625,33.66
2019-08-16 15:58:14.656250,-2.74
2019-08-16 15:58:14.671875,-41.02
2019-08-16 15:58:14.687500,-70.08
2019-08-16 15:58:14.703125,-80.9
2019-08-16 15:58:14.718750,-70.38
2019-08-16 15:58:14.734375,-42.79
2019-08-16 15:58:14.750000,-7.56
2019-08-16 15:58:14.765625,25.93
2019-08-16 15:58:14.781250,51.3
2019-08-16 15:58:14.796875,67.07
2019-08-16 15:58:14.812500,75.55
2019-08-16 15:58:14.828125,79.91
2019-08-16 15:58:14.843750,81.68
2019-08-16 15:58:14.859375,80.54
2019-08-16 15:58:14.875000,75.47
2019-08-16 15:58:14.890625,66.8
2019-08-16 15:58:14.906250,57.07
2019-08-16 15:58:14.921875,49.78
2019-08-16 15:58:14.937500,47.84
2019-08-16 15:58:14.953125,52.29
2019-08-16 15:58:14.968750,61.76
2019-08-16 15:58:14.984375,73.18
2019-08-16 15:58:15.000000,82.8
2019-08-16 15:58:15.015625,86.77
2019-08-16 15:58:15.031250,82.03
2019-08-16 15:58:15.046875,66.77
2019-08-16 15:58:15.062500,41.28
2019-08-16 15:58:15.078125,8.15
2019-08-16 15:58:15.093750,-27.53
2019-08-16 15:58:15.109375,-60.03
2019-08-16 15:58:15.125000,-85.06
2019-08-16 15:58:15.140625,-101.62
2019-08-16 15:58:15.156250,-112.16
2019-08-16 15:58:15.171875,-120.64
2019-08-16 15:58:15.187500,-129.62
2019-08-16 15:58:15.203125,-136.79
2019-08-16 15:58:15.218750,-138.15
2019-08-16 15:58:15.234375,-128.21
2019-08-16 15:58:15.250000,-104.03
2019-08-16 15:58:15.265625,-67.93
2019-08-16 15:58:15.281250,-26.92
2019-08-16 15:58:15.296875,10.74
2019-08-16 15:58:15.312500,39.61
2019-08-16 15:58:15.328125,59.0
2019-08-16 15:58:15.343750,71.45
2019-08-16 15:58:15.359375,79.14
2019-08-16 15:58:15.375000,81.16
2019-08-16 15:58:15.390625,73.14
2019-08-16 15:58:15.406250,50.34
2019-08-16 15:58:15.421875,11.93
2019-08-16 15:58:15.437500,-36.63
2019-08-16 15:58:15.453125,-85.54
2019-08-16 15:58:15.468750,-124.02
2019-08-16 15:58:15.484375,-145.22
2019-08-16 15:58:15.500000,-149.24
2019-08-16 15:58:15.515625,-141.73
2019-08-16 15:58:15.531250,-130.58
2019-08-16 15:58:15.546875,-122.38
2019-08-16 15:58:15.562500,-120.33
2019-08-16 15:58:15.578125,-124.39
2019-08-16 15:58:15.593750,-132.39
2019-08-16 15:58:15.609375,-140.89
2019-08-16 15:58:15.625000,-145.86
2019-08-16 15:58:15.640625,-143.22
2019-08-16 15:58:15.656250,-129.64
2019-08-16 15:58:15.671875,-103.88
2019-08-16 15:58:15.687500,-68.22
2019-08-16 15:58:15.703125,-28.3
2019-08-16 15:58:15.718750,8.71
2019-08-16 15:58:15.734375,36.97
2019-08-16 15:58:15.750000,54.19
2019-08-16 15:58:15.765625,61.61
2019-08-16 15:58:15.781250,62.42
2019-08-16 15:58:15.796875,59.78
2019-08-16 15:58:15.812500,55.94
2019-08-16 15:58:15.828125,51.59
2019-08-16 15:58:15.843750,46.45
2019-08-16 15:58:15.859375,40.8
2019-08-16 15:58:15.875000,36.34
2019-08-16 15:58:15.890625,35.62
2019-08-16 15:58:15.906250,40.37
2019-08-16 15:58:15.921875,50.36
2019-08-16 15:58:15.937500,63.41
2019-08-16 15:58:15.953125,77.5
2019-08-16 15:58:15.968750,90.56
2019-08-16 15:58:15.984375,101.28
2019-08-16 15:58:16.000000,109.87
2019-08-16 15:58:16.015625,118.2
2019-08-16 15:58:16.031250,129.38
2019-08-16 15:58:16.046875,146.44
2019-08-16 15:58:16.062500,171.9
2019-08-16 15:58:16.078125,207.6
2019-08-16 15:58:16.093750,250.59
2019-08-16 15:58:16.109375,296.48
2019-08-16 15:58:16.125000,337.89
2019-08-16 15:58:16.140625,365.81
2019-08-16 15:58:16.156250,372.2
2019-08-16 15:58:16.171875,353.16
2019-08-16 15:58:16.187500,309.85
2019-08-16 15:58:16.203125,248.32
2019-08-16 15:58:16.218750,169.69
2019-08-16 15:58:16.234375,84.32
2019-08-16 15:58:16.250000,5.63
2019-08-16 15:58:16.265625,-56.64
2019-08-16 15:58:16.281250,-99.69
2019-08-16 15:58:16.296875,-126.23
2019-08-16 15:58:16.312500,-139.62
2019-08-16 15:58:16.328125,-142.58
2019-08-16 15:58:16.343750,-137.02
2019-08-16 15:58:16.359375,-125.97
2019-08-16 15:58:16.375000,-111.31
2019-08-16 15:58:16.390625,-95.93
2019-08-16 15:58:16.406250,-82.87
2019-08-16 15:58:16.421875,-73.69
2019-08-16 15:58:16.437500,-69.93
2019-08-16 15:58:16.453125,-68.88
2019-08-16 15:58:16.468750,-68.25
2019-08-16 15:58:16.484375,-66.79
2019-08-16 15:58:16.500000,-65.89
2019-08-16 15:58:16.515625,-65.99
2019-08-16 15:58:16.531250,-68.69
2019-08-16 15:58:16.546875,-75.78
2019-08-16 15:58:16.562500,-84.6
2019-08-16 15:58:16.578125,-93.91
2019-08-16 15:58:16.593750,-101.57
2019-08-16 15:58:16.609375,-106.09
2019-08-16 15:58:16.625000,-106.27
2019-08-16 15:58:16.640625,-106.95
2019-08-16 15:58:16.656250,-108.04
2019-08-16 15:58:16.671875,-109.82
2019-08-16 15:58:16.687500,-112.87
2019-08-16 15:58:16.703125,-117.14
2019-08-16 15:58:16.718750,-122.13
2019-08-16 15:58:16.734375,-126.0
2019-08-16 15:58:16.750000,-127.75
2019-08-16 15:58:16.765625,-119.66
2019-08-16 15:58:16.781250,-102.26
2019-08-16 15:58:16.796875,-78.33
2019-08-16 15:58:16.812500,-52.66
2019-08-16 15:58:16.828125,-29.64
2019-08-16 15:58:16.843750,-11.78
2019-08-16 15:58:16.859375,0.27
2019-08-16 15:58:16.875000,8.14
2019-08-16 15:58:16.890625,11.28
2019-08-16 15:58:16.906250,12.03
2019-08-16 15:58:16.921875,10.05
2019-08-16 15:58:16.937500,4.97
2019-08-16 15:58:16.953125,-4.36
2019-08-16 15:58:16.968750,-19.05
2019-08-16 15:58:16.984375,-39.86
2019-08-16 15:58:17.000000,-67.54
2019-08-16 15:58:17.015625,-97.1
2019-08-16 15:58:17.031250,-125.77
2019-08-16 15:58:17.046875,-149.34
2019-08-16 15:58:17.062500,-163.55
2019-08-16 15:58:17.078125,-162.77
2019-08-16 15:58:17.093750,-143.43
2019-08-16 15:58:17.109375,-106.49
2019-08-16 15:58:17.125000,-58.12
2019-08-16 15:58:17.140625,-8.07
2019-08-16 15:58:17.156250,34.37
2019-08-16 15:58:17.171875,62.88
2019-08-16 15:58:17.187500,77.27
2019-08-16 15:58:17.203125,80.63
2019-08-16 15:58:17.218750,77.92
2019-08-16 15:58:17.234375,72.83
2019-08-16 15:58:17.250000,66.77
2019-08-16 15:58:17.265625,59.62
2019-08-16 15:58:17.281250,51.25
2019-08-16 15:58:17.296875,42.62
2019-08-16 15:58:17.312500,34.96
2019-08-16 15:58:17.328125,29.99
2019-08-16 15:58:17.343750,27.82
2019-08-16 15:58:17.359375,27.36
2019-08-16 15:58:17.375000,26.87
2019-08-16 15:58:17.390625,24.68
2019-08-16 15:58:17.406250,20.29
2019-08-16 15:58:17.421875,14.52
2019-08-16 15:58:17.437500,9.63
2019-08-16 15:58:17.453125,7.0
2019-08-16 15:58:17.468750,8.09
2019-08-16 15:58:17.484375,12.99
2019-08-16 15:58:17.500000,20.73
2019-08-16 15:58:17.515625,29.76
2019-08-16 15:58:17.531250,38.63
2019-08-16 15:58:17.546875,46.51
2019-08-16 15:58:17.562500,53.36
2019-08-16 15:58:17.578125,59.74
2019-08-16 15:58:17.593750,64.5
2019-08-16 15:58:17.609375,70.08
2019-08-16 15:58:17.625000,76.68
2019-08-16 15:58:17.640625,83.34
2019-08-16 15:58:17.656250,88.83
2019-08-16 15:58:17.671875,92.03
2019-08-16 15:58:17.687500,92.28
2019-08-16 15:58:17.703125,89.53
2019-08-16 15:58:17.718750,84.28
2019-08-16 15:58:17.734375,77.32
2019-08-16 15:58:17.750000,67.11
2019-08-16 15:58:17.765625,55.35
2019-08-16 15:58:17.781250,43.59
2019-08-16 15:58:17.796875,32.8
2019-08-16 15:58:17.812500,23.27
2019-08-16 15:58:17.828125,14.86
2019-08-16 15:58:17.843750,7.29
2019-08-16 15:58:17.859375,0.34
2019-08-16 15:58:17.875000,-5.93
2019-08-16 15:58:17.890625,-10.97
2019-08-16 15:58:17.906250,-13.91
2019-08-16 15:58:17.921875,-14.6
2019-08-16 15:58:17.937500,-13.28
2019-08-16 15:58:17.953125,-10.64
2019-08-16 15:58:17.968750,-7.71
2019-08-16 15:58:17.984375,-5.45
2019-08-16 15:58:18.000000,-4.44
2019-08-16 15:58:18.015625,-4.65
2019-08-16 15:58:18.031250,-5.33
2019-08-16 15:58:18.046875,-4.44
2019-08-16 15:58:18.062500,-1.45
2019-08-16 15:58:18.078125,3.96
2019-08-16 15:58:18.093750,11.91
2019-08-16 15:58:18.109375,22.27
2019-08-16 15:58:18.125000,34.4
2019-08-16 15:58:18.140625,46.84
2019-08-16 15:58:18.156250,57.17
2019-08-16 15:58:18.171875,61.25
2019-08-16 15:58:18.187500,57.1
2019-08-16 15:58:18.203125,44.4
2019-08-16 15:58:18.218750,25.44
2019-08-16 15:58:18.234375,4.41
2019-08-16 15:58:18.250000,-14.22
2019-08-16 15:58:18.265625,-27.53
2019-08-16 15:58:18.281250,-35.07
2019-08-16 15:58:18.296875,-38.39
2019-08-16 15:58:18.312500,-39.69
2019-08-16 15:58:18.328125,-40.01
2019-08-16 15:58:18.343750,-39.42
2019-08-16 15:58:18.359375,-37.13
2019-08-16 15:58:18.375000,-32.6
2019-08-16 15:58:18.390625,-26.32
2019-08-16 15:58:18.406250,-19.77
2019-08-16 15:58:18.421875,-14.66
2019-08-16 15:58:18.437500,-11.86
2019-08-16 15:58:18.453125,-11.32
2019-08-16 15:58:18.468750,-11.95
2019-08-16 15:58:18.484375,-12.66
2019-08-16 15:58:18.500000,-12.72
2019-08-16 15:58:18.515625,-12.12
2019-08-16 15:58:18.531250,-11.41
2019-08-16 15:58:18.546875,-11.28
2019-08-16 15:58:18.562500,-12.18
2019-08-16 15:58:18.578125,-14.04
2019-08-16 15:58:18.593750,-16.3
2019-08-16 15:58:18.609375,-18.02
2019-08-16 15:58:18.625000,-18.48
2019-08-16 15:58:18.640625,-17.35
2019-08-16 15:58:18.656250,-14.81
2019-08-16 15:58:18.671875,-11.49
2019-08-16 15:58:18.687500,-8.16
2019-08-16 15:58:18.703125,-5.51
2019-08-16 15:58:18.718750,-3.88
2019-08-16 15:58:18.734375,-3.33
2019-08-16 15:58:18.750000,-3.61
2019-08-16 15:58:18.765625,-4.44
2019-08-16 15:58:18.781250,-5.59
2019-08-16 15:58:18.796875,-6.87
2019-08-16 15:58:18.812500,-8.11
2019-08-16 15:58:18.828125,-9.1
2019-08-16 15:58:18.843750,-9.63
2019-08-16 15:58:18.859375,-9.45
2019-08-16 15:58:18.875000,-8.47
2019-08-16 15:58:18.890625,-6.73
2019-08-16 15:58:18.906250,-4.5
2019-08-16 15:58:18.921875,-2.19
2019-08-16 15:58:18.937500,-0.26
2019-08-16 15:58:18.953125,0.97
2019-08-16 15:58:18.968750,1.39
2019-08-16 15:58:18.984375,1.21
2019-08-16 15:58:19.000000,0.81
2019-08-16 15:58:19.015625,0.64
2019-08-16 15:58:19.031250,1.08
2019-08-16 15:58:19.046875,2.3
2019-08-16 15:58:19.062500,4.32
2019-08-16 15:58:19.078125,6.93
2019-08-16 15:58:19.093750,9.8
2019-08-16 15:58:19.109375,12.61
2019-08-16 15:58:19.125000,14.94
2019-08-16 15:58:19.140625,16.41
2019-08-16 15:58:19.156250,16.79
2019-08-16 15:58:19.171875,16.11
2019-08-16 15:58:19.187500,14.86
2019-08-16 15:58:19.203125,13.75
2019-08-16 15:58:19.218750,13.43
2019-08-16 15:58:19.234375,14.04
2019-08-16 15:58:19.250000,15.06
2019-08-16 15:58:19.265625,15.56
2019-08-16 15:58:19.281250,14.68
2019-08-16 15:58:19.296875,12.23
2019-08-16 15:58:19.312500,8.8
2019-08-16 15:58:19.328125,5.46
2019-08-16 15:58:19.343750,3.08
2019-08-16 15:58:19.359375,1.88
2019-08-16 15:58:19.375000,1.32
2019-08-16 15:58:19.390625,0.56
2019-08-16 15:58:19.406250,-0.98
2019-08-16 15:58:19.421875,-3.28
2019-08-16 15:58:19.437500,-5.75
2019-08-16 15:58:19.453125,-7.69
2019-08-16 15:58:19.468750,-8.78
2019-08-16 15:58:19.484375,-9.25
2019-08-16 15:58:19.500000,-9.63
2019-08-16 15:58:19.515625,-10.52
2019-08-16 15:58:19.531250,-12.18
2019-08-16 15:58:19.546875,-14.48
2019-08-16 15:58:19.562500,-16.95
2019-08-16 15:58:19.578125,-19.12
2019-08-16 15:58:19.593750,-20.65
2019-08-16 15:58:19.609375,-21.52
2019-08-16 15:58:19.625000,-21.99
2019-08-16 15:58:19.640625,-22.55
2019-08-16 15:58:19.656250,-23.71
2019-08-16 15:58:19.671875,-25.79
2019-08-16 15:58:19.687500,-28.77
2019-08-16 15:58:19.703125,-32.26
2019-08-16 15:58:19.718750,-35.6
2019-08-16 15:58:19.734375,-38.02
2019-08-16 15:58:19.750000,-38.9
2019-08-16 15:58:19.765625,-37.9
2019-08-16 15:58:19.781250,-35.01
2019-08-16 15:58:19.796875,-30.49
2019-08-16 15:58:19.812500,-24.68
2019-08-16 15:58:19.828125,-17.9
2019-08-16 15:58:19.843750,-10.45
2019-08-16 15:58:19.859375,-2.64
2019-08-16 15:58:19.875000,5.03
2019-08-16 15:58:19.890625,11.76
2019-08-16 15:58:19.906250,16.54
2019-08-16 15:58:19.921875,18.39
2019-08-16 15:58:19.937500,16.86
2019-08-16 15:58:19.953125,12.33
2019-08-16 15:58:19.968750,6.03
2019-08-16 15:58:19.984375,-0.41
2019-08-16 15:58:20.000000,-5.63
2019-08-16 15:58:20.015625,-9.19
2019-08-16 15:58:20.031250,-11.75
2019-08-16 15:58:20.046875,-14.62
2019-08-16 15:58:20.062500,-18.99
2019-08-16 15:58:20.078125,-25.17
2019-08-16 15:58:20.093750,-32.36
2019-08-16 15:58:20.109375,-38.9
2019-08-16 15:58:20.125000,-42.94
2019-08-16 15:58:20.140625,-43.07
2019-08-16 15:58:20.156250,-38.67
2019-08-16 15:58:20.171875,-30.05
2019-08-16 15:58:20.187500,-18.33
2019-08-16 15:58:20.203125,-5.25
2019-08-16 15:58:20.218750,7.09
2019-08-16 15:58:20.234375,16.66
2019-08-16 15:58:20.250000,22.08
2019-08-16 15:58:20.265625,23.05
2019-08-16 15:58:20.281250,20.52
2019-08-16 15:58:20.296875,16.27
2019-08-16 15:58:20.312500,12.21
2019-08-16 15:58:20.328125,9.65
2019-08-16 15:58:20.343750,8.92
2019-08-16 15:58:20.359375,9.51
2019-08-16 15:58:20.375000,10.58
2019-08-16 15:58:20.390625,11.52
2019-08-16 15:58:20.406250,12.17
2019-08-16 15:58:20.421875,12.72
2019-08-16 15:58:20.437500,13.4
2019-08-16 15:58:20.453125,14.19
2019-08-16 15:58:20.468750,14.82
2019-08-16 15:58:20.484375,14.96
2019-08-16 15:58:20.500000,14.5
2019-08-16 15:58:20.515625,13.62
2019-08-16 15:58:20.531250,12.78
2019-08-16 15:58:20.546875,12.38
2019-08-16 15:58:20.562500,12.59
2019-08-16 15:58:20.578125,13.19
2019-08-16 15:58:20.593750,13.68
2019-08-16 15:58:20.609375,13.59
2019-08-16 15:58:20.625000,12.69
2019-08-16 15:58:20.640625,11.12
2019-08-16 15:58:20.656250,9.39
2019-08-16 15:58:20.671875,8.15
2019-08-16 15:58:20.687500,7.95
2019-08-16 15:58:20.703125,8.96
2019-08-16 15:58:20.718750,10.92
2019-08-16 15:58:20.734375,13.23
2019-08-16 15:58:20.750000,15.27
2019-08-16 15:58:20.765625,16.55
2019-08-16 15:58:20.781250,16.88
2019-08-16 15:58:20.796875,16.43
2019-08-16 15:58:20.812500,15.47
2019-08-16 15:58:20.828125,14.28
2019-08-16 15:58:20.843750,12.99
2019-08-16 15:58:20.859375,11.55
2019-08-16 15:58:20.875000,9.89
2019-08-16 15:58:20.890625,8.0
2019-08-16 15:58:20.906250,5.96
2019-08-16 15:58:20.921875,4.01
2019-08-16 15:58:20.937500,2.38
2019-08-16 15:58:20.953125,1.26
2019-08-16 15:58:20.968750,0.72
2019-08-16 15:58:20.984375,0.74
2019-08-16 15:58:21.000000,1.26
2019-08-16 15:58:21.015625,2.25
2019-08-16 15:58:21.031250,3.59
2019-08-16 15:58:21.046875,5.11
2019-08-16 15:58:21.062500,6.58
2019-08-16 15:58:21.078125,7.71
2019-08-16 15:58:21.093750,8.37
2019-08-16 15:58:21.109375,8.6
2019-08-16 15:58:21.125000,8.65
2019-08-16 15:58:21.140625,8.82
2019-08-16 15:58:21.156250,9.39
2019-08-16 15:58:21.171875,10.48
2019-08-16 15:58:21.187500,12.09
2019-08-16 15:58:21.203125,14.2
2019-08-16 15:58:21.218750,16.82
2019-08-16 15:58:21.234375,19.99
2019-08-16 15:58:21.250000,23.71
2019-08-16 15:58:21.265625,27.93
2019-08-16 15:58:21.281250,32.51
2019-08-16 15:58:21.296875,37.26
2019-08-16 15:58:21.312500,41.98
2019-08-16 15:58:21.328125,46.34
2019-08-16 15:58:21.343750,49.9
2019-08-16 15:58:21.359375,52.08
2019-08-16 15:58:21.375000,52.34
2019-08-16 15:58:21.390625,50.34
2019-08-16 15:58:21.406250,46.14
2019-08-16 15:58:21.421875,40.16
2019-08-16 15:58:21.437500,33.03
2019-08-16 15:58:21.453125,25.31
2019-08-16 15:58:21.468750,17.38
2019-08-16 15:58:21.484375,9.35
2019-08-16 15:58:21.500000,1.18
2019-08-16 15:58:21.515625,-7.16
2019-08-16 15:58:21.531250,-15.61
2019-08-16 15:58:21.546875,-23.94
2019-08-16 15:58:21.562500,-31.8
2019-08-16 15:58:21.578125,-38.78
2019-08-16 15:58:21.593750,-44.48
2019-08-16 15:58:21.609375,-48.6
2019-08-16 15:58:21.625000,-51.05
2019-08-16 15:58:21.640625,-51.96
2019-08-16 15:58:21.656250,-51.71
2019-08-16 15:58:21.671875,-50.71
2019-08-16 15:58:21.687500,-49.32
2019-08-16 15:58:21.703125,-47.64
2019-08-16 15:58:21.718750,-45.66
2019-08-16 15:58:21.734375,-43.29
2019-08-16 15:58:21.750000,-40.55
2019-08-16 15:58:21.765625,-37.6
2019-08-16 15:58:21.781250,-34.72
2019-08-16 15:58:21.796875,-32.12
2019-08-16 15:58:21.812500,-29.88
2019-08-16 15:58:21.828125,-27.86
2019-08-16 15:58:21.843750,-25.79
2019-08-16 15:58:21.859375,-23.39
2019-08-16 15:58:21.875000,-20.54
2019-08-16 15:58:21.890625,-17.28
2019-08-16 15:58:21.906250,-13.84
2019-08-16 15:58:21.921875,-10.49
2019-08-16 15:58:21.937500,-7.55
2019-08-16 15:58:21.953125,-5.29
2019-08-16 15:58:21.968750,-3.92
2019-08-16 15:58:21.984375,-3.53
2019-08-16 15:58:22.000000,-4.09
2019-08-16 15:58:22.015625,-5.33
2019-08-16 15:58:22.031250,-6.7
2019-08-16 15:58:22.046875,-7.44
2019-08-16 15:58:22.062500,-6.74
2019-08-16 15:58:22.078125,-4.08
2019-08-16 15:58:22.093750,0.49
2019-08-16 15:58:22.109375,6.18
2019-08-16 15:58:22.125000,11.68
2019-08-16 15:58:22.140625,15.66
2019-08-16 15:58:22.156250,17.33
2019-08-16 15:58:22.171875,16.77
2019-08-16 15:58:22.187500,14.87
2019-08-16 15:58:22.203125,12.84
2019-08-16 15:58:22.218750,11.61
2019-08-16 15:58:22.234375,11.38
2019-08-16 15:58:22.250000,11.7
2019-08-16 15:58:22.265625,11.84
2019-08-16 15:58:22.281250,11.26
2019-08-16 15:58:22.296875,9.93
2019-08-16 15:58:22.312500,8.25
2019-08-16 15:58:22.328125,6.79
2019-08-16 15:58:22.343750,5.94
2019-08-16 15:58:22.359375,5.75
2019-08-16 15:58:22.375000,5.94
2019-08-16 15:58:22.390625,6.14
2019-08-16 15:58:22.406250,6.08
2019-08-16 15:58:22.421875,5.65
2019-08-16 15:58:22.437500,4.93
2019-08-16 15:58:22.453125,4.06
2019-08-16 15:58:22.468750,3.14
2019-08-16 15:58:22.484375,2.21
2019-08-16 15:58:22.500000,1.23
2019-08-16 15:58:22.515625,0.13
2019-08-16 15:58:22.531250,-1.12
2019-08-16 15:58:22.546875,-2.5
2019-08-16 15:58:22.562500,-3.83
2019-08-16 15:58:22.578125,-4.84
2019-08-16 15:58:22.593750,-5.21
2019-08-16 15:58:22.609375,-4.69
2019-08-16 15:58:22.625000,-3.22
2019-08-16 15:58:22.640625,-1.02
2019-08-16 15:58:22.656250,1.44
2019-08-16 15:58:22.671875,3.6
2019-08-16 15:58:22.687500,5.02
2019-08-16 15:58:22.703125,5.56
2019-08-16 15:58:22.718750,5.48
2019-08-16 15:58:22.734375,5.2
2019-08-16 15:58:22.750000,5.16
2019-08-16 15:58:22.765625,5.56
2019-08-16 15:58:22.781250,6.28
2019-08-16 15:58:22.796875,7.05
2019-08-16 15:58:22.812500,7.6
2019-08-16 15:58:22.828125,7.84
2019-08-16 15:58:22.843750,7.89
2019-08-16 15:58:22.859375,7.98
2019-08-16 15:58:22.875000,8.23
2019-08-16 15:58:22.890625,8.55
2019-08-16 15:58:22.906250,8.67
2019-08-16 15:58:22.921875,8.31
2019-08-16 15:58:22.937500,7.39
2019-08-16 15:58:22.953125,6.09
2019-08-16 15:58:22.968750,4.75
2019-08-16 15:58:22.984375,3.64
2019-08-16 15:58:23.000000,2.85
2019-08-16 15:58:23.015625,2.15
2019-08-16 15:58:23.031250,1.18
2019-08-16 15:58:23.046875,-0.34
2019-08-16 15:58:23.062500,-2.46
2019-08-16 15:58:23.078125,-4.91
2019-08-16 15:58:23.093750,-7.24
2019-08-16 15:58:23.109375,-9.01
2019-08-16 15:58:23.125000,-10.0
2019-08-16 15:58:23.140625,-10.22
2019-08-16 15:58:23.156250,-9.98
2019-08-16 15:58:23.171875,-9.63
2019-08-16 15:58:23.187500,-9.47
2019-08-16 15:58:23.203125,-9.62
2019-08-16 15:58:23.218750,-10.05
2019-08-16 15:58:23.234375,-10.57
2019-08-16 15:58:23.250000,-10.98
2019-08-16 15:58:23.265625,-11.1
2019-08-16 15:58:23.281250,-10.84
2019-08-16 15:58:23.296875,-10.22
2019-08-16 15:58:23.312500,-9.33
2019-08-16 15:58:23.328125,-8.29
2019-08-16 15:58:23.343750,-7.19
2019-08-16 15:58:23.359375,-6.09
2019-08-16 15:58:23.375000,-5.02
2019-08-16 15:58:23.390625,-4.01
2019-08-16 15:58:23.406250,-3.08
2019-08-16 15:58:23.421875,-2.26
2019-08-16 15:58:23.437500,-1.57
2019-08-16 15:58:23.453125,-0.96
2019-08-16 15:58:23.468750,-0.41
2019-08-16 15:58:23.484375,0.11
2019-08-16 15:58:23.500000,0.58
2019-08-16 15:58:23.515625,0.94
2019-08-16 15:58:23.531250,1.12
2019-08-16 15:58:23.546875,1.11
2019-08-16 15:58:23.562500,1.03
2019-08-16 15:58:23.578125,1.07
2019-08-16 15:58:23.593750,1.42
2019-08-16 15:58:23.609375,2.14
2019-08-16 15:58:23.625000,3.04
2019-08-16 15:58:23.640625,3.73
2019-08-16 15:58:23.656250,3.79
2019-08-16 15:58:23.671875,3.02
2019-08-16 15:58:23.687500,1.6
2019-08-16 15:58:23.703125,0.11
2019-08-16 15:58:23.718750,-0.71
2019-08-16 15:58:23.734375,-0.3
2019-08-16 15:58:23.750000,1.49
2019-08-16 15:58:23.765625,4.28
2019-08-16 15:58:23.781250,7.41
2019-08-16 15:58:23.796875,10.14
2019-08-16 15:58:23.812500,11.99
2019-08-16 15:58:23.828125,12.77
2019-08-16 15:58:23.843750,12.52
2019-08-16 15:58:23.859375,11.36
2019-08-16 15:58:23.875000,9.42
2019-08-16 15:58:23.890625,6.79
2019-08-16 15:58:23.906250,3.65
2019-08-16 15:58:23.921875,0.3
2019-08-16 15:58:23.937500,-2.84
2019-08-16 15:58:23.953125,-5.35
2019-08-16 15:58:23.968750,-6.99
2019-08-16 15:58:23.984375,-7.76
2019-08-16 15:58:24.000000,-7.96
2019-08-16 15:58:24.015625,-8.05
2019-08-16 15:58:24.031250,-8.46
2019-08-16 15:58:24.046875,-9.47
2019-08-16 15:58:24.062500,-11.04
2019-08-16 15:58:24.078125,-12.83
2019-08-16 15:58:24.093750,-14.37
2019-08-16 15:58:24.109375,-15.23
2019-08-16 15:58:24.125000,-15.2
2019-08-16 15:58:24.140625,-14.33
2019-08-16 15:58:24.156250,-12.95
2019-08-16 15:58:24.171875,-11.44
2019-08-16 15:58:24.187500,-10.09
2019-08-16 15:58:24.203125,-8.95
2019-08-16 15:58:24.218750,-7.86
2019-08-16 15:58:24.234375,-6.57
2019-08-16 15:58:24.250000,-4.87
2019-08-16 15:58:24.265625,-2.77
2019-08-16 15:58:24.281250,-0.53
2019-08-16 15:58:24.296875,1.44
2019-08-16 15:58:24.312500,2.76
2019-08-16 15:58:24.328125,3.31
2019-08-16 15:58:24.343750,3.22
2019-08-16 15:58:24.359375,2.82
2019-08-16 15:58:24.375000,2.45
2019-08-16 15:58:24.390625,2.18
2019-08-16 15:58:24.406250,1.87
2019-08-16 15:58:24.421875,1.18
2019-08-16 15:58:24.437500,-0.21
2019-08-16 15:58:24.453125,-2.37
2019-08-16 15:58:24.468750,-5.13
2019-08-16 15:58:24.484375,-8.12
2019-08-16 15:58:24.500000,-11.03
2019-08-16 15:58:24.515625,-13.67
2019-08-16 15:58:24.531250,-16.0
2019-08-16 15:58:24.546875,-17.98
2019-08-16 15:58:24.562500,-19.42
2019-08-16 15:58:24.578125,-20.0
2019-08-16 15:58:24.593750,-19.47
2019-08-16 15:58:24.609375,-17.83
2019-08-16 15:58:24.625000,-15.44
2019-08-16 15:58:24.640625,-12.75
2019-08-16 15:58:24.656250,-10.06
2019-08-16 15:58:24.671875,-7.22
2019-08-16 15:58:24.687500,-3.56
2019-08-16 15:58:24.703125,1.7
2019-08-16 15:58:24.718750,9.02
2019-08-16 15:58:24.734375,18.21
2019-08-16 15:58:24.750000,28.42
2019-08-16 15:58:24.765625,38.49
2019-08-16 15:58:24.781250,47.39
2019-08-16 15:58:24.796875,54.6
2019-08-16 15:58:24.812500,59.95
2019-08-16 15:58:24.828125,63.42
2019-08-16 15:58:24.843750,64.76
2019-08-16 15:58:24.859375,63.49
2019-08-16 15:58:24.875000,59.15
2019-08-16 15:58:24.890625,51.71
2019-08-16 15:58:24.906250,41.85
2019-08-16 15:58:24.921875,30.87
2019-08-16 15:58:24.937500,20.36
2019-08-16 15:58:24.953125,11.61
2019-08-16 15:58:24.968750,5.26
2019-08-16 15:58:24.984375,1.16
2019-08-16 15:58:25.000000,-1.47
2019-08-16 15:58:25.015625,-3.59
2019-08-16 15:58:25.031250,-5.99
2019-08-16 15:58:25.046875,-9.08
2019-08-16 15:58:25.062500,-12.83
2019-08-16 15:58:25.078125,-16.9
2019-08-16 15:58:25.093750,-20.87
2019-08-16 15:58:25.109375,-24.34
2019-08-16 15:58:25.125000,-27.12
2019-08-16 15:58:25.140625,-29.22
2019-08-16 15:58:25.156250,-30.84
2019-08-16 15:58:25.171875,-32.19
2019-08-16 15:58:25.187500,-33.39
2019-08-16 15:58:25.203125,-34.36
2019-08-16 15:58:25.218750,-34.77
2019-08-16 15:58:25.234375,-34.19
2019-08-16 15:58:25.250000,-32.2
2019-08-16 15:58:25.265625,-28.57
2019-08-16 15:58:25.281250,-23.39
2019-08-16 15:58:25.296875,-17.01
2019-08-16 15:58:25.312500,-10.03
2019-08-16 15:58:25.328125,-3.17
2019-08-16 15:58:25.343750,2.89
2019-08-16 15:58:25.359375,7.55
2019-08-16 15:58:25.375000,10.41
2019-08-16 15:58:25.390625,11.27
2019-08-16 15:58:25.406250,10.18
2019-08-16 15:58:25.421875,7.4
2019-08-16 15:58:25.437500,3.41
2019-08-16 15:58:25.453125,-1.14
2019-08-16 15:58:25.468750,-5.51
2019-08-16 15:58:25.484375,-8.95
2019-08-16 15:58:25.500000,-10.88
2019-08-16 15:58:25.515625,-10.98
2019-08-16 15:58:25.531250,-9.26
2019-08-16 15:58:25.546875,-6.07
2019-08-16 15:58:25.562500,-1.88
2019-08-16 15:58:25.578125,2.78
2019-08-16 15:58:25.593750,7.49
2019-08-16 15:58:25.609375,11.97
2019-08-16 15:58:25.625000,16.03
2019-08-16 15:58:25.640625,19.43
2019-08-16 15:58:25.656250,21.9
2019-08-16 15:58:25.671875,23.1
2019-08-16 15:58:25.687500,22.81
2019-08-16 15:58:25.703125,20.97
2019-08-16 15:58:25.718750,17.76
2019-08-16 15:58:25.734375,13.54
2019-08-16 15:58:25.750000,8.76
2019-08-16 15:58:25.765625,3.87
2019-08-16 15:58:25.781250,-0.73
2019-08-16 15:58:25.796875,-4.63
2019-08-16 15:58:25.812500,-7.46
2019-08-16 15:58:25.828125,-8.9
2019-08-16 15:58:25.843750,-8.83
2019-08-16 15:58:25.859375,-7.39
2019-08-16 15:58:25.875000,-5.05
2019-08-16 15:58:25.890625,-2.38
2019-08-16 15:58:25.906250,0.06
2019-08-16 15:58:25.921875,1.95
2019-08-16 15:58:25.937500,3.29
2019-08-16 15:58:25.953125,4.26
2019-08-16 15:58:25.968750,5.01
2019-08-16 15:58:25.984375,5.55
2019-08-16 15:58:26.000000,5.76
2019-08-16 15:58:26.015625,5.59
2019-08-16 15:58:26.031250,5.26
2019-08-16 15:58:26.046875,5.27
2019-08-16 15:58:26.062500,6.16
2019-08-16 15:58:26.078125,8.08
2019-08-16 15:58:26.093750,10.6
2019-08-16 15:58:26.109375,12.72
2019-08-16 15:58:26.125000,13.3
2019-08-16 15:58:26.140625,11.54
2019-08-16 15:58:26.156250,7.4
2019-08-16 15:58:26.171875,1.6
2019-08-16 15:58:26.187500,-4.69
2019-08-16 15:58:26.203125,-10.31
2019-08-16 15:58:26.218750,-14.47
2019-08-16 15:58:26.234375,-16.85
2019-08-16 15:58:26.250000,-17.52
2019-08-16 15:58:26.265625,-16.79
2019-08-16 15:58:26.281250,-15.03
2019-08-16 15:58:26.296875,-12.69
2019-08-16 15:58:26.312500,-10.19
2019-08-16 15:58:26.328125,-7.88
2019-08-16 15:58:26.343750,-5.93
2019-08-16 15:58:26.359375,-4.33
2019-08-16 15:58:26.375000,-2.93
2019-08-16 15:58:26.390625,-1.59
2019-08-16 15:58:26.406250,-0.26
2019-08-16 15:58:26.421875,0.92
2019-08-16 15:58:26.437500,1.69
2019-08-16 15:58:26.453125,1.75
2019-08-16 15:58:26.468750,0.94
2019-08-16 15:58:26.484375,-0.74
2019-08-16 15:58:26.500000,-2.98
2019-08-16 15:58:26.515625,-5.33
2019-08-16 15:58:26.531250,-7.26
2019-08-16 15:58:26.546875,-8.29
2019-08-16 15:58:26.562500,-8.2
2019-08-16 15:58:26.578125,-7.02
2019-08-16 15:58:26.593750,-5.03
2019-08-16 15:58:26.609375,-2.7
2019-08-16 15:58:26.625000,-0.5
2019-08-16 15:58:26.640625,1.14
2019-08-16 15:58:26.656250,1.97
2019-08-16 15:58:26.671875,1.93
2019-08-16 15:58:26.687500,1.13
2019-08-16 15:58:26.703125,-0.2
2019-08-16 15:58:26.718750,-1.77
2019-08-16 15:58:26.734375,-3.29
2019-08-16 15:58:26.750000,-4.52
2019-08-16 15:58:26.765625,-5.24
2019-08-16 15:58:26.781250,-5.32
2019-08-16 15:58:26.796875,-4.68
2019-08-16 15:58:26.812500,-3.39
2019-08-16 15:58:26.828125,-1.61
2019-08-16 15:58:26.843750,0.43
2019-08-16 15:58:26.859375,2.42
2019-08-16 15:58:26.875000,4.13
2019-08-16 15:58:26.890625,5.43
2019-08-16 15:58:26.906250,6.32
2019-08-16 15:58:26.921875,6.93
2019-08-16 15:58:26.937500,7.41
2019-08-16 15:58:26.953125,7.9
2019-08-16 15:58:26.968750,8.42
2019-08-16 15:58:26.984375,8.9
2019-08-16 15:58:27.000000,9.25
2019-08-16 15:58:27.015625,9.35
2019-08-16 15:58:27.031250,9.17
2019-08-16 15:58:27.046875,8.77
2019-08-16 15:58:27.062500,8.17
2019-08-16 15:58:27.078125,7.32
2019-08-16 15:58:27.093750,6.17
2019-08-16 15:58:27.109375,4.69
2019-08-16 15:58:27.125000,3.04
2019-08-16 15:58:27.140625,1.57
2019-08-16 15:58:27.156250,0.74
2019-08-16 15:58:27.171875,1.03
2019-08-16 15:58:27.187500,2.63
2019-08-16 15:58:27.203125,5.27
2019-08-16 15:58:27.218750,8.11
2019-08-16 15:58:27.234375,10.04
2019-08-16 15:58:27.250000,9.98
2019-08-16 15:58:27.265625,7.55
2019-08-16 15:58:27.281250,3.12
2019-08-16 15:58:27.296875,-2.22
2019-08-16 15:58:27.312500,-6.97
2019-08-16 15:58:27.328125,-9.82
2019-08-16 15:58:27.343750,-10.21
2019-08-16 15:58:27.359375,-8.55
2019-08-16 15:58:27.375000,-5.88
2019-08-16 15:58:27.390625,-3.48
2019-08-16 15:58:27.406250,-2.08
2019-08-16 15:58:27.421875,-1.88
2019-08-16 15:58:27.437500,-2.64
2019-08-16 15:58:27.453125,-3.72
2019-08-16 15:58:27.468750,-4.25
2019-08-16 15:58:27.484375,-3.29
2019-08-16 15:58:27.500000,0.1
2019-08-16 15:58:27.515625,6.71
2019-08-16 15:58:27.531250,16.76
2019-08-16 15:58:27.546875,29.78
2019-08-16 15:58:27.562500,43.58
2019-08-16 15:58:27.578125,54.43
2019-08-16 15:58:27.593750,58.5
2019-08-16 15:58:27.609375,54.06
2019-08-16 15:58:27.625000,42.48
2019-08-16 15:58:27.640625,27.27
2019-08-16 15:58:27.656250,12.73
2019-08-16 15:58:27.671875,0.42
2019-08-16 15:58:27.687500,-9.51
2019-08-16 15:58:27.703125,-17.65
2019-08-16 15:58:27.718750,-24.62
2019-08-16 15:58:27.734375,-30.63
2019-08-16 15:58:27.750000,-35.02
2019-08-16 15:58:27.765625,-37.24
2019-08-16 15:58:27.781250,-37.24
2019-08-16 15:58:27.796875,-35.56
2019-08-16 15:58:27.812500,-33.18
2019-08-16 15:58:27.828125,-30.86
2019-08-16 15:58:27.843750,-29.12
2019-08-16 15:58:27.859375,-28.01
2019-08-16 15:58:27.875000,-27.21
2019-08-16 15:58:27.890625,-26.15
2019-08-16 15:58:27.906250,-24.45
2019-08-16 15:58:27.921875,-22.08
2019-08-16 15:58:27.937500,-19.31
2019-08-16 15:58:27.953125,-16.56
2019-08-16 15:58:27.968750,-14.05
2019-08-16 15:58:27.984375,-11.83
2019-08-16 15:58:28.000000,-9.88
2019-08-16 15:58:28.015625,-8.15
2019-08-16 15:58:28.031250,-6.64
2019-08-16 15:58:28.046875,-5.54
2019-08-16 15:58:28.062500,-5.14
2019-08-16 15:58:28.078125,-5.56
2019-08-16 15:58:28.093750,-6.58
2019-08-16 15:58:28.109375,-7.43
2019-08-16 15:58:28.125000,-7.16
2019-08-16 15:58:28.140625,-5.22
2019-08-16 15:58:28.156250,-1.89
2019-08-16 15:58:28.171875,1.76
2019-08-16 15:58:28.187500,4.26
2019-08-16 15:58:28.203125,4.56
2019-08-16 15:58:28.218750,2.53
2019-08-16 15:58:28.234375,-0.9
2019-08-16 15:58:28.250000,-4.22
2019-08-16 15:58:28.265625,-6.14
2019-08-16 15:58:28.281250,-6.26
2019-08-16 15:58:28.296875,-5.37
2019-08-16 15:58:28.312500,-4.77
2019-08-16 15:58:28.328125,-5.53
2019-08-16 15:58:28.343750,-7.76
2019-08-16 15:58:28.359375,-10.49
2019-08-16 15:58:28.375000,-12.19
2019-08-16 15:58:28.390625,-11.46
2019-08-16 15:58:28.406250,-7.53
2019-08-16 15:58:28.421875,-0.52
2019-08-16 15:58:28.437500,8.46
2019-08-16 15:58:28.453125,17.79
2019-08-16 15:58:28.468750,25.63
2019-08-16 15:58:28.484375,30.11
2019-08-16 15:58:28.500000,29.65
2019-08-16 15:58:28.515625,22.22
2019-08-16 15:58:28.531250,7.15
2019-08-16 15:58:28.546875,-13.26
2019-08-16 15:58:28.562500,-33.53
2019-08-16 15:58:28.578125,-47.39
2019-08-16 15:58:28.593750,-50.78
2019-08-16 15:58:28.609375,-43.48
2019-08-16 15:58:28.625000,-28.65
2019-08-16 15:58:28.640625,-11.19
2019-08-16 15:58:28.656250,5.64
2019-08-16 15:58:28.671875,20.18
2019-08-16 15:58:28.687500,32.06
2019-08-16 15:58:28.703125,41.73
2019-08-16 15:58:28.718750,49.48
2019-08-16 15:58:28.734375,55.36
2019-08-16 15:58:28.750000,59.3
2019-08-16 15:58:28.765625,60.15
2019-08-16 15:58:28.781250,57.5
2019-08-16 15:58:28.796875,51.2
2019-08-16 15:58:28.812500,41.36
2019-08-16 15:58:28.828125,28.61
2019-08-16 15:58:28.843750,14.11
2019-08-16 15:58:28.859375,-0.87
2019-08-16 15:58:28.875000,-15.14
2019-08-16 15:58:28.890625,-27.72
2019-08-16 15:58:28.906250,-37.73
2019-08-16 15:58:28.921875,-43.81
2019-08-16 15:58:28.937500,-45.16
2019-08-16 15:58:28.953125,-41.98
2019-08-16 15:58:28.968750,-35.59
2019-08-16 15:58:28.984375,-26.86
2019-08-16 15:58:29.000000,-16.69
2019-08-16 15:58:29.015625,-6.07
2019-08-16 15:58:29.031250,3.74
2019-08-16 15:58:29.046875,11.81
2019-08-16 15:58:29.062500,17.93
2019-08-16 15:58:29.078125,22.28
2019-08-16 15:58:29.093750,25.14
2019-08-16 15:58:29.109375,26.74
2019-08-16 15:58:29.125000,27.01
2019-08-16 15:58:29.140625,25.44
2019-08-16 15:58:29.156250,21.52
2019-08-16 15:58:29.171875,15.23
2019-08-16 15:58:29.187500,7.37
2019-08-16 15:58:29.203125,-0.5
2019-08-16 15:58:29.218750,-6.79
2019-08-16 15:58:29.234375,-10.37
2019-08-16 15:58:29.250000,-10.92
2019-08-16 15:58:29.265625,-8.83
2019-08-16 15:58:29.281250,-5.16
2019-08-16 15:58:29.296875,-1.14
2019-08-16 15:58:29.312500,2.25
2019-08-16 15:58:29.328125,4.53
2019-08-16 15:58:29.343750,5.67
2019-08-16 15:58:29.359375,5.85
2019-08-16 15:58:29.375000,5.28
2019-08-16 15:58:29.390625,4.24
2019-08-16 15:58:29.406250,3.04
2019-08-16 15:58:29.421875,1.91
2019-08-16 15:58:29.437500,1.01
2019-08-16 15:58:29.453125,0.37
2019-08-16 15:58:29.468750,-0.03
2019-08-16 15:58:29.484375,-0.29
2019-08-16 15:58:29.500000,-0.63
2019-08-16 15:58:29.515625,-1.29
2019-08-16 15:58:29.531250,-2.39
2019-08-16 15:58:29.546875,-3.86
2019-08-16 15:58:29.562500,-5.51
2019-08-16 15:58:29.578125,-7.02
2019-08-16 15:58:29.593750,-8.09
2019-08-16 15:58:29.609375,-8.53
2019-08-16 15:58:29.625000,-8.32
2019-08-16 15:58:29.640625,-7.61
2019-08-16 15:58:29.656250,-6.61
2019-08-16 15:58:29.671875,-5.5
2019-08-16 15:58:29.687500,-4.34
2019-08-16 15:58:29.703125,-3.14
2019-08-16 15:58:29.718750,-1.86
2019-08-16 15:58:29.734375,-0.53
2019-08-16 15:58:29.750000,0.74
2019-08-16 15:58:29.765625,1.78
2019-08-16 15:58:29.781250,2.44
2019-08-16 15:58:29.796875,2.68
2019-08-16 15:58:29.812500,2.55
2019-08-16 15:58:29.828125,2.25
2019-08-16 15:58:29.843750,1.95
2019-08-16 15:58:29.859375,1.8
2019-08-16 15:58:29.875000,1.83
2019-08-16 15:58:29.890625,2.0
2019-08-16 15:58:29.906250,2.22
2019-08-16 15:58:29.921875,2.43
2019-08-16 15:58:29.937500,2.6
2019-08-16 15:58:29.953125,2.72
2019-08-16 15:58:29.968750,2.8
2019-08-16 15:58:29.984375,2.84
2019-08-16 15:58:30.000000,2.84
2019-08-16 15:58:30.015625,2.8
2019-08-16 15:58:30.031250,2.74
2019-08-16 15:58:30.046875,2.66
2019-08-16 15:58:30.062500,2.55
2019-08-16 15:58:30.078125,2.36
2019-08-16 15:58:30.093750,2.08
2019-08-16 15:58:30.109375,1.72
2019-08-16 15:58:30.125000,1.39
2019-08-16 15:58:30.140625,1.18
2019-08-16 15:58:30.156250,1.15
2019-08-16 15:58:30.171875,1.28
2019-08-16 15:58:30.187500,1.48
2019-08-16 15:58:30.203125,1.6
2019-08-16 15:58:30.218750,1.53
2019-08-16 15:58:30.234375,1.23
2019-08-16 15:58:30.250000,0.73
2019-08-16 15:58:30.265625,0.1
2019-08-16 15:58:30.281250,-0.57
2019-08-16 15:58:30.296875,-1.22
2019-08-16 15:58:30.312500,-1.77
2019-08-16 15:58:30.328125,-2.15
2019-08-16 15:58:30.343750,-2.27
2019-08-16 15:58:30.359375,-2.05
2019-08-16 15:58:30.375000,-1.49
2019-08-16 15:58:30.390625,-0.7
2019-08-16 15:58:30.406250,0.12
2019-08-16 15:58:30.421875,0.67
2019-08-16 15:58:30.437500,0.71
2019-08-16 15:58:30.453125,0.12
2019-08-16 15:58:30.468750,-1.04
2019-08-16 15:58:30.484375,-2.54
2019-08-16 15:58:30.500000,-4.05
2019-08-16 15:58:30.515625,-5.26
2019-08-16 15:58:30.531250,-5.94
2019-08-16 15:58:30.546875,-5.97
2019-08-16 15:58:30.562500,-5.4
2019-08-16 15:58:30.578125,-4.32
2019-08-16 15:58:30.593750,-2.88
2019-08-16 15:58:30.609375,-1.23
2019-08-16 15:58:30.625000,0.47
2019-08-16 15:58:30.640625,2.05
2019-08-16 15:58:30.656250,3.39
2019-08-16 15:58:30.671875,4.38
2019-08-16 15:58:30.687500,4.96
2019-08-16 15:58:30.703125,5.12
2019-08-16 15:58:30.718750,4.86
2019-08-16 15:58:30.734375,4.22
2019-08-16 15:58:30.750000,3.23
2019-08-16 15:58:30.765625,2.0
2019-08-16 15:58:30.781250,0.64
2019-08-16 15:58:30.796875,-0.74
2019-08-16 15:58:30.812500,-2.09
2019-08-16 15:58:30.828125,-3.38
2019-08-16 15:58:30.843750,-4.61
2019-08-16 15:58:30.859375,-5.73
2019-08-16 15:58:30.875000,-6.59
2019-08-16 15:58:30.890625,-7.03
2019-08-16 15:58:30.906250,-6.94
2019-08-16 15:58:30.921875,-6.4
2019-08-16 15:58:30.937500,-5.64
2019-08-16 15:58:30.953125,-4.95
2019-08-16 15:58:30.968750,-4.5
2019-08-16 15:58:30.984375,-4.24
2019-08-16 15:58:31.000000,-3.94
2019-08-16 15:58:31.015625,-3.32
2019-08-16 15:58:31.031250,-2.23
2019-08-16 15:58:31.046875,-0.73
2019-08-16 15:58:31.062500,0.92
2019-08-16 15:58:31.078125,2.45
2019-08-16 15:58:31.093750,3.68
2019-08-16 15:58:31.109375,4.59
2019-08-16 15:58:31.125000,5.34
2019-08-16 15:58:31.140625,6.1
2019-08-16 15:58:31.156250,7.06
2019-08-16 15:58:31.171875,8.29
2019-08-16 15:58:31.187500,9.77
2019-08-16 15:58:31.203125,11.32
2019-08-16 15:58:31.218750,12.65
2019-08-16 15:58:31.234375,13.35
2019-08-16 15:58:31.250000,13.02
2019-08-16 15:58:31.265625,11.41
2019-08-16 15:58:31.281250,8.52
2019-08-16 15:58:31.296875,4.72
2019-08-16 15:58:31.312500,0.65
2019-08-16 15:58:31.328125,-2.9
2019-08-16 15:58:31.343750,-5.21
2019-08-16 15:58:31.359375,-5.82
2019-08-16 15:58:31.375000,-4.59
2019-08-16 15:58:31.390625,-1.77
2019-08-16 15:58:31.406250,2.14
2019-08-16 15:58:31.421875,6.43
2019-08-16 15:58:31.437500,10.32
2019-08-16 15:58:31.453125,13.1
2019-08-16 15:58:31.468750,14.26
2019-08-16 15:58:31.484375,13.61
2019-08-16 15:58:31.500000,11.36
2019-08-16 15:58:31.515625,8.05
2019-08-16 15:58:31.531250,4.4
2019-08-16 15:58:31.546875,1.14
2019-08-16 15:58:31.562500,-1.22
2019-08-16 15:58:31.578125,-2.49
2019-08-16 15:58:31.593750,-2.86
2019-08-16 15:58:31.609375,-2.77
2019-08-16 15:58:31.625000,-2.74
2019-08-16 15:58:31.640625,-3.24
2019-08-16 15:58:31.656250,-4.48
2019-08-16 15:58:31.671875,-6.37
2019-08-16 15:58:31.687500,-8.52
2019-08-16 15:58:31.703125,-10.35
2019-08-16 15:58:31.718750,-11.24
2019-08-16 15:58:31.734375,-10.75
2019-08-16 15:58:31.750000,-8.71
2019-08-16 15:58:31.765625,-5.33
2019-08-16 15:58:31.781250,-1.14
2019-08-16 15:58:31.796875,3.15
2019-08-16 15:58:31.812500,6.79
2019-08-16 15:58:31.828125,9.28
2019-08-16 15:58:31.843750,10.41
2019-08-16 15:58:31.859375,10.29
2019-08-16 15:58:31.875000,9.3
2019-08-16 15:58:31.890625,7.86
2019-08-16 15:58:31.906250,6.34
2019-08-16 15:58:31.921875,4.98
2019-08-16 15:58:31.937500,3.93
2019-08-16 15:58:31.953125,3.28
2019-08-16 15:58:31.968750,3.1
2019-08-16 15:58:31.984375,3.42
2019-08-16 15:58:32.000000,4.21
2019-08-16 15:58:32.015625,5.28
2019-08-16 15:58:32.031250,6.41
2019-08-16 15:58:32.046875,7.37
2019-08-16 15:58:32.062500,8.02
2019-08-16 15:58:32.078125,8.33
2019-08-16 15:58:32.093750,8.35
2019-08-16 15:58:32.109375,8.11
2019-08-16 15:58:32.125000,7.61
2019-08-16 15:58:32.140625,6.8
2019-08-16 15:58:32.156250,5.59
2019-08-16 15:58:32.171875,3.9
2019-08-16 15:58:32.187500,1.67
2019-08-16 15:58:32.203125,-1.08
2019-08-16 15:58:32.218750,-4.15
2019-08-16 15:58:32.234375,-7.19
2019-08-16 15:58:32.250000,-9.74
2019-08-16 15:58:32.265625,-11.39
2019-08-16 15:58:32.281250,-12.02
2019-08-16 15:58:32.296875,-11.83
2019-08-16 15:58:32.312500,-11.27
2019-08-16 15:58:32.328125,-10.83
2019-08-16 15:58:32.343750,-10.68
2019-08-16 15:58:32.359375,-10.66
2019-08-16 15:58:32.375000,-10.32
2019-08-16 15:58:32.390625,-9.22
2019-08-16 15:58:32.406250,-7.25
2019-08-16 15:58:32.421875,-4.7
2019-08-16 15:58:32.437500,-2.15
2019-08-16 15:58:32.453125,-0.16
2019-08-16 15:58:32.468750,0.97
2019-08-16 15:58:32.484375,1.27
2019-08-16 15:58:32.500000,1.08
2019-08-16 15:58:32.515625,0.75
2019-08-16 15:58:32.531250,0.53
2019-08-16 15:58:32.546875,0.48
2019-08-16 15:58:32.562500,0.5
2019-08-16 15:58:32.578125,0.44
2019-08-16 15:58:32.593750,0.11
2019-08-16 15:58:32.609375,-0.67
2019-08-16 15:58:32.625000,-2.06
2019-08-16 15:58:32.640625,-4.1
2019-08-16 15:58:32.656250,-6.66
2019-08-16 15:58:32.671875,-9.37
2019-08-16 15:58:32.687500,-11.73
2019-08-16 15:58:32.703125,-13.3
2019-08-16 15:58:32.718750,-13.9
2019-08-16 15:58:32.734375,-13.74
2019-08-16 15:58:32.750000,-13.36
2019-08-16 15:58:32.765625,-13.29
2019-08-16 15:58:32.781250,-13.87
2019-08-16 15:58:32.796875,-14.97
2019-08-16 15:58:32.812500,-16.1
2019-08-16 15:58:32.828125,-16.6
2019-08-16 15:58:32.843750,-15.91
2019-08-16 15:58:32.859375,-13.78
2019-08-16 15:58:32.875000,-10.3
2019-08-16 15:58:32.890625,-5.83
2019-08-16 15:58:32.906250,-0.92
2019-08-16 15:58:32.921875,3.8
2019-08-16 15:58:32.937500,7.74
2019-08-16 15:58:32.953125,10.48
2019-08-16 15:58:32.968750,11.92
2019-08-16 15:58:32.984375,12.49
2019-08-16 15:58:33.000000,13.08
2019-08-16 15:58:33.015625,14.83
2019-08-16 15:58:33.031250,18.6
2019-08-16 15:58:33.046875,24.44
2019-08-16 15:58:33.062500,31.23
2019-08-16 15:58:33.078125,36.89
2019-08-16 15:58:33.093750,39.03
2019-08-16 15:58:33.109375,35.89
2019-08-16 15:58:33.125000,27.14
2019-08-16 15:58:33.140625,14.12
2019-08-16 15:58:33.156250,-0.57
2019-08-16 15:58:33.171875,-14.01
2019-08-16 15:58:33.187500,-23.97
2019-08-16 15:58:33.203125,-29.46
2019-08-16 15:58:33.218750,-30.78
2019-08-16 15:58:33.234375,-29.06
2019-08-16 15:58:33.250000,-25.55
2019-08-16 15:58:33.265625,-21.13
2019-08-16 15:58:33.281250,-16.25
2019-08-16 15:58:33.296875,-11.07
2019-08-16 15:58:33.312500,-5.73
2019-08-16 15:58:33.328125,-0.51
2019-08-16 15:58:33.343750,4.19
2019-08-16 15:58:33.359375,8.05
2019-08-16 15:58:33.375000,10.95
2019-08-16 15:58:33.390625,13.06
2019-08-16 15:58:33.406250,14.66
2019-08-16 15:58:33.421875,15.99
2019-08-16 15:58:33.437500,17.06
2019-08-16 15:58:33.453125,17.65
2019-08-16 15:58:33.468750,17.42
2019-08-16 15:58:33.484375,16.11
2019-08-16 15:58:33.500000,13.72
2019-08-16 15:58:33.515625,10.64
2019-08-16 15:58:33.531250,7.48
2019-08-16 15:58:33.546875,4.91
2019-08-16 15:58:33.562500,3.43
2019-08-16 15:58:33.578125,3.11
2019-08-16 15:58:33.593750,3.61
2019-08-16 15:58:33.609375,4.22
2019-08-16 15:58:33.625000,4.23
2019-08-16 15:58:33.640625,3.25
2019-08-16 15:58:33.656250,1.45
2019-08-16 15:58:33.671875,-0.44
2019-08-16 15:58:33.687500,-1.45
2019-08-16 15:58:33.703125,-0.77
2019-08-16 15:58:33.718750,1.76
2019-08-16 15:58:33.734375,5.54
2019-08-16 15:58:33.750000,9.46
2019-08-16 15:58:33.765625,12.3
2019-08-16 15:58:33.781250,13.21
2019-08-16 15:58:33.796875,11.9
2019-08-16 15:58:33.812500,8.57
2019-08-16 15:58:33.828125,3.67
2019-08-16 15:58:33.843750,-2.27
2019-08-16 15:58:33.859375,-8.62
2019-08-16 15:58:33.875000,-14.55
2019-08-16 15:58:33.890625,-18.98
2019-08-16 15:58:33.906250,-20.78
2019-08-16 15:58:33.921875,-19.16
2019-08-16 15:58:33.937500,-14.0
2019-08-16 15:58:33.953125,-6.04
2019-08-16 15:58:33.968750,3.34
2019-08-16 15:58:33.984375,12.5
2019-08-16 15:58:34.000000,20.0
2019-08-16 15:58:34.015625,24.95
2019-08-16 15:58:34.031250,27.08
2019-08-16 15:58:34.046875,26.63
2019-08-16 15:58:34.062500,24.11
2019-08-16 15:58:34.078125,20.05
2019-08-16 15:58:34.093750,14.9
2019-08-16 15:58:34.109375,8.95
2019-08-16 15:58:34.125000,2.41
2019-08-16 15:58:34.140625,-4.47
2019-08-16 15:58:34.156250,-11.39
2019-08-16 15:58:34.171875,-18.01
2019-08-16 15:58:34.187500,-24.01
2019-08-16 15:58:34.203125,-29.17
2019-08-16 15:58:34.218750,-33.41
2019-08-16 15:58:34.234375,-36.66
2019-08-16 15:58:34.250000,-38.86
2019-08-16 15:58:34.265625,-39.84
2019-08-16 15:58:34.281250,-39.45
2019-08-16 15:58:34.296875,-37.66
2019-08-16 15:58:34.312500,-34.67
2019-08-16 15:58:34.328125,-30.85
2019-08-16 15:58:34.343750,-26.67
2019-08-16 15:58:34.359375,-22.57
2019-08-16 15:58:34.375000,-18.79
2019-08-16 15:58:34.390625,-15.45
2019-08-16 15:58:34.406250,-12.57
2019-08-16 15:58:34.421875,-10.1
2019-08-16 15:58:34.437500,-8.06
2019-08-16 15:58:34.453125,-6.46
2019-08-16 15:58:34.468750,-5.33
2019-08-16 15:58:34.484375,-4.65
2019-08-16 15:58:34.500000,-4.33
2019-08-16 15:58:34.515625,-4.24
2019-08-16 15:58:34.531250,-4.21
2019-08-16 15:58:34.546875,-4.1
2019-08-16 15:58:34.562500,-3.83
2019-08-16 15:58:34.578125,-3.43
2019-08-16 15:58:34.593750,-2.97
2019-08-16 15:58:34.609375,-2.56
2019-08-16 15:58:34.625000,-2.25
2019-08-16 15:58:34.640625,-2.03
2019-08-16 15:58:34.656250,-1.84
2019-08-16 15:58:34.671875,-1.58
2019-08-16 15:58:34.687500,-1.2
2019-08-16 15:58:34.703125,-0.73
2019-08-16 15:58:34.718750,-0.28
2019-08-16 15:58:34.734375,0.03
2019-08-16 15:58:34.750000,0.08
2019-08-16 15:58:34.765625,-0.09
2019-08-16 15:58:34.781250,-0.35
2019-08-16 15:58:34.796875,-0.47
2019-08-16 15:58:34.812500,-0.23
2019-08-16 15:58:34.828125,0.45
2019-08-16 15:58:34.843750,1.5
2019-08-16 15:58:34.859375,2.77
2019-08-16 15:58:34.875000,4.08
2019-08-16 15:58:34.890625,5.31
2019-08-16 15:58:34.906250,6.45
2019-08-16 15:58:34.921875,7.52
2019-08-16 15:58:34.937500,8.53
2019-08-16 15:58:34.953125,9.37
2019-08-16 15:58:34.968750,9.91
2019-08-16 15:58:34.984375,10.02
2019-08-16 15:58:35.000000,9.66
2019-08-16 15:58:35.015625,8.89
2019-08-16 15:58:35.031250,7.88
2019-08-16 15:58:35.046875,6.86
2019-08-16 15:58:35.062500,6.07
2019-08-16 15:58:35.078125,5.64
2019-08-16 15:58:35.093750,5.6
2019-08-16 15:58:35.109375,5.76
2019-08-16 15:58:35.125000,5.84
2019-08-16 15:58:35.140625,5.51
2019-08-16 15:58:35.156250,4.56
2019-08-16 15:58:35.171875,2.99
2019-08-16 15:58:35.187500,1.01
2019-08-16 15:58:35.203125,-1.02
2019-08-16 15:58:35.218750,-2.76
2019-08-16 15:58:35.234375,-4.05
2019-08-16 15:58:35.250000,-4.94
2019-08-16 15:58:35.265625,-5.64
2019-08-16 15:58:35.281250,-6.37
2019-08-16 15:58:35.296875,-7.33
2019-08-16 15:58:35.312500,-8.56
2019-08-16 15:58:35.328125,-9.99
2019-08-16 15:58:35.343750,-11.46
2019-08-16 15:58:35.359375,-12.81
2019-08-16 15:58:35.375000,-13.85
2019-08-16 15:58:35.390625,-14.39
2019-08-16 15:58:35.406250,-14.22
2019-08-16 15:58:35.421875,-13.22
2019-08-16 15:58:35.437500,-11.53
2019-08-16 15:58:35.453125,-9.57
2019-08-16 15:58:35.468750,-7.84
2019-08-16 15:58:35.484375,-6.74
2019-08-16 15:58:35.500000,-6.3
2019-08-16 15:58:35.515625,-6.17
2019-08-16 15:58:35.531250,-5.78
2019-08-16 15:58:35.546875,-4.61
2019-08-16 15:58:35.562500,-2.39
2019-08-16 15:58:35.578125,0.64
2019-08-16 15:58:35.593750,4.07
2019-08-16 15:58:35.609375,7.68
2019-08-16 15:58:35.625000,11.62
2019-08-16 15:58:35.640625,16.23
2019-08-16 15:58:35.656250,21.63
2019-08-16 15:58:35.671875,27.4
2019-08-16 15:58:35.687500,32.64
2019-08-16 15:58:35.703125,36.34
2019-08-16 15:58:35.718750,37.56
2019-08-16 15:58:35.734375,36.1
2019-08-16 15:58:35.750000,32.65
2019-08-16 15:58:35.765625,28.53
2019-08-16 15:58:35.781250,25.0
2019-08-16 15:58:35.796875,22.56
2019-08-16 15:58:35.812500,20.69
2019-08-16 15:58:35.828125,18.21
2019-08-16 15:58:35.843750,13.94
2019-08-16 15:58:35.859375,7.03
2019-08-16 15:58:35.875000,-2.3
2019-08-16 15:58:35.890625,-12.77
2019-08-16 15:58:35.906250,-22.65
2019-08-16 15:58:35.921875,-30.53
2019-08-16 15:58:35.937500,-36.02
2019-08-16 15:58:35.953125,-39.64
2019-08-16 15:58:35.968750,-42.35
2019-08-16 15:58:35.984375,-43.2
2019-08-16 15:58:36.000000,-41.98
2019-08-16 15:58:36.015625,-40.1
2019-08-16 15:58:36.031250,-40.68
2019-08-16 15:58:36.046875,-46.48
2019-08-16 15:58:36.062500,-57.38
2019-08-16 15:58:36.078125,-69.61
2019-08-16 15:58:36.093750,-77.43
2019-08-16 15:58:36.109375,-75.75
2019-08-16 15:58:36.125000,-62.64
2019-08-16 15:58:36.140625,-40.65
2019-08-16 15:58:36.156250,-15.21
2019-08-16 15:58:36.171875,7.96
2019-08-16 15:58:36.187500,25.34
2019-08-16 15:58:36.203125,36.53
2019-08-16 15:58:36.218750,43.46
2019-08-16 15:58:36.234375,47.81
2019-08-16 15:58:36.250000,50.31
2019-08-16 15:58:36.265625,50.86
2019-08-16 15:58:36.281250,48.89
2019-08-16 15:58:36.296875,44.38
2019-08-16 15:58:36.312500,38.25
2019-08-16 15:58:36.328125,32.06
2019-08-16 15:58:36.343750,27.3
2019-08-16 15:58:36.359375,24.59
2019-08-16 15:58:36.375000,23.46
2019-08-16 15:58:36.390625,22.9
2019-08-16 15:58:36.406250,21.89
2019-08-16 15:58:36.421875,19.54
2019-08-16 15:58:36.437500,15.94
2019-08-16 15:58:36.453125,11.94
2019-08-16 15:58:36.468750,8.63
2019-08-16 15:58:36.484375,6.83
2019-08-16 15:58:36.500000,6.71
2019-08-16 15:58:36.515625,7.67
2019-08-16 15:58:36.531250,8.87
2019-08-16 15:58:36.546875,9.53
2019-08-16 15:58:36.562500,9.21
2019-08-16 15:58:36.578125,7.93
2019-08-16 15:58:36.593750,6.13
2019-08-16 15:58:36.609375,4.4
2019-08-16 15:58:36.625000,3.26
2019-08-16 15:58:36.640625,2.85
2019-08-16 15:58:36.656250,2.91
2019-08-16 15:58:36.671875,2.98
2019-08-16 15:58:36.687500,2.57
2019-08-16 15:58:36.703125,1.4
2019-08-16 15:58:36.718750,-0.44
2019-08-16 15:58:36.734375,-2.5
2019-08-16 15:58:36.750000,-4.17
2019-08-16 15:58:36.765625,-4.9
2019-08-16 15:58:36.781250,-4.45
2019-08-16 15:58:36.796875,-3.01
2019-08-16 15:58:36.812500,-1.03
2019-08-16 15:58:36.828125,1.01
2019-08-16 15:58:36.843750,2.72
2019-08-16 15:58:36.859375,4.05
2019-08-16 15:58:36.875000,5.08
2019-08-16 15:58:36.890625,6.01
2019-08-16 15:58:36.906250,6.92
2019-08-16 15:58:36.921875,7.79
2019-08-16 15:58:36.937500,8.47
2019-08-16 15:58:36.953125,8.78
2019-08-16 15:58:36.968750,8.67
2019-08-16 15:58:36.984375,8.16
2019-08-16 15:58:37.000000,7.4
2019-08-16 15:58:37.015625,6.56
2019-08-16 15:58:37.031250,5.77
2019-08-16 15:58:37.046875,5.09
2019-08-16 15:58:37.062500,4.55
2019-08-16 15:58:37.078125,4.17
2019-08-16 15:58:37.093750,3.97
2019-08-16 15:58:37.109375,3.97
2019-08-16 15:58:37.125000,4.12
2019-08-16 15:58:37.140625,4.31
2019-08-16 15:58:37.156250,4.32
2019-08-16 15:58:37.171875,4.0
2019-08-16 15:58:37.187500,3.28
2019-08-16 15:58:37.203125,2.22
2019-08-16 15:58:37.218750,1.01
2019-08-16 15:58:37.234375,-0.16
2019-08-16 15:58:37.250000,-1.16
2019-08-16 15:58:37.265625,-1.96
2019-08-16 15:58:37.281250,-2.61
2019-08-16 15:58:37.296875,-3.15
2019-08-16 15:58:37.312500,-3.57
2019-08-16 15:58:37.328125,-3.86
2019-08-16 15:58:37.343750,-4.04
2019-08-16 15:58:37.359375,-4.13
2019-08-16 15:58:37.375000,-4.19
2019-08-16 15:58:37.390625,-4.3
2019-08-16 15:58:37.406250,-4.46
2019-08-16 15:58:37.421875,-4.67
2019-08-16 15:58:37.437500,-4.84
2019-08-16 15:58:37.453125,-4.89
2019-08-16 15:58:37.468750,-4.78
2019-08-16 15:58:37.484375,-4.48
2019-08-16 15:58:37.500000,-4.0
2019-08-16 15:58:37.515625,-3.38
2019-08-16 15:58:37.531250,-2.65
2019-08-16 15:58:37.546875,-1.86
2019-08-16 15:58:37.562500,-1.07
2019-08-16 15:58:37.578125,-0.36
2019-08-16 15:58:37.593750,0.2
2019-08-16 15:58:37.609375,0.57
2019-08-16 15:58:37.625000,0.74
2019-08-16 15:58:37.640625,0.78
2019-08-16 15:58:37.656250,0.78
2019-08-16 15:58:37.671875,0.83
2019-08-16 15:58:37.687500,1.0
2019-08-16 15:58:37.703125,1.26
2019-08-16 15:58:37.718750,1.51
2019-08-16 15:58:37.734375,1.62
2019-08-16 15:58:37.750000,1.51
2019-08-16 15:58:37.765625,1.17
2019-08-16 15:58:37.781250,0.66
2019-08-16 15:58:37.796875,0.1
2019-08-16 15:58:37.812500,-0.4
2019-08-16 15:58:37.828125,-0.77
2019-08-16 15:58:37.843750,-1.02
2019-08-16 15:58:37.859375,-1.19
2019-08-16 15:58:37.875000,-1.36
2019-08-16 15:58:37.890625,-1.59
2019-08-16 15:58:37.906250,-1.87
2019-08-16 15:58:37.921875,-2.16
2019-08-16 15:58:37.937500,-2.42
2019-08-16 15:58:37.953125,-2.63
2019-08-16 15:58:37.968750,-2.78
2019-08-16 15:58:37.984375,-2.94
2019-08-16 15:58:38.000000,-3.14
2019-08-16 15:58:38.015625,-3.4
2019-08-16 15:58:38.031250,-3.72
2019-08-16 15:58:38.046875,-4.07
2019-08-16 15:58:38.062500,-4.42
2019-08-16 15:58:38.078125,-4.78
2019-08-16 15:58:38.093750,-5.16
2019-08-16 15:58:38.109375,-5.62
2019-08-16 15:58:38.125000,-6.18
2019-08-16 15:58:38.140625,-6.8
2019-08-16 15:58:38.156250,-7.36
2019-08-16 15:58:38.171875,-7.74
2019-08-16 15:58:38.187500,-7.8
2019-08-16 15:58:38.203125,-7.55
2019-08-16 15:58:38.218750,-7.09
2019-08-16 15:58:38.234375,-6.62
2019-08-16 15:58:38.250000,-6.34
2019-08-16 15:58:38.265625,-6.32
2019-08-16 15:58:38.281250,-6.46
2019-08-16 15:58:38.296875,-6.56
2019-08-16 15:58:38.312500,-6.43
2019-08-16 15:58:38.328125,-6.02
2019-08-16 15:58:38.343750,-5.41
2019-08-16 15:58:38.359375,-4.78
2019-08-16 15:58:38.375000,-4.28
2019-08-16 15:58:38.390625,-3.98
2019-08-16 15:58:38.406250,-3.8
2019-08-16 15:58:38.421875,-3.65
2019-08-16 15:58:38.437500,-3.44
2019-08-16 15:58:38.453125,-3.17
2019-08-16 15:58:38.468750,-2.89
2019-08-16 15:58:38.484375,-2.66
2019-08-16 15:58:38.500000,-2.5
2019-08-16 15:58:38.515625,-2.33
2019-08-16 15:58:38.531250,-2.05
2019-08-16 15:58:38.546875,-1.57
2019-08-16 15:58:38.562500,-0.89
2019-08-16 15:58:38.578125,-0.13
2019-08-16 15:58:38.593750,0.52
2019-08-16 15:58:38.609375,0.86
2019-08-16 15:58:38.625000,0.79
2019-08-16 15:58:38.640625,0.32
2019-08-16 15:58:38.656250,-0.43
2019-08-16 15:58:38.671875,-1.2
2019-08-16 15:58:38.687500,-1.76
2019-08-16 15:58:38.703125,-1.93
2019-08-16 15:58:38.718750,-1.67
2019-08-16 15:58:38.734375,-1.08
2019-08-16 15:58:38.750000,-0.39
2019-08-16 15:58:38.765625,0.1
2019-08-16 15:58:38.781250,0.16
