2019-08-16 19:31:34.000000,-0.0
2019-08-16 19:31:34.015625,-0.0
2019-08-16 19:31:34.031250,-0.0
2019-08-16 19:31:34.046875,-0.0
2019-08-16 19:31:34.062500,-0.0
2019-08-16 19:31:34.078125,-0.0
2019-08-16 19:31:34.093750,-0.0
2019-08-16 19:31:34.109375,-0.0
2019-08-16 19:31:34.125000,-0.0
2019-08-16 19:31:34.140625,-0.0
2019-08-16 19:31:34.156250,0.0
2019-08-16 19:31:34.171875,0.01
2019-08-16 19:31:34.187500,0.01
2019-08-16 19:31:34.203125,-0.0
2019-08-16 19:31:34.218750,-0.03
2019-08-16 19:31:34.234375,-0.05
2019-08-16 19:31:34.250000,-0.05
2019-08-16 19:31:34.265625,0.0
2019-08-16 19:31:34.281250,0.13
2019-08-16 19:31:34.296875,0.36
2019-08-16 19:31:34.312500,0.66
2019-08-16 19:31:34.328125,1.01
2019-08-16 19:31:34.343750,1.37
2019-08-16 19:31:34.359375,1.72
2019-08-16 19:31:34.375000,2.06
2019-08-16 19:31:34.390625,2.4
2019-08-16 19:31:34.406250,2.79
2019-08-16 19:31:34.421875,3.24
2019-08-16 19:31:34.437500,3.8
2019-08-16 19:31:34.453125,4.42
2019-08-16 19:31:34.468750,5.06
2019-08-16 19:31:34.484375,5.66
2019-08-16 19:31:34.500000,6.2
2019-08-16 19:31:34.515625,6.68
2019-08-16 19:31:34.531250,7.15
2019-08-16 19:31:34.546875,7.68
2019-08-16 19:31:34.562500,8.31
2019-08-16 19:31:34.578125,9.14
2019-08-16 19:31:34.593750,10.09
2019-08-16 19:31:34.609375,11.04
2019-08-16 19:31:34.625000,11.88
2019-08-16 19:31:34.640625,12.56
2019-08-16 19:31:34.656250,13.14
2019-08-16 19:31:34.671875,13.76
2019-08-16 19:31:34.687500,14.65
2019-08-16 19:31:34.703125,15.96
2019-08-16 19:31:34.718750,17.91
2019-08-16 19:31:34.734375,20.32
2019-08-16 19:31:34.750000,22.9
2019-08-16 19:31:34.765625,25.38
2019-08-16 19:31:34.781250,27.58
2019-08-16 19:31:34.796875,29.57
2019-08-16 19:31:34.812500,31.68
2019-08-16 19:31:34.828125,34.32
2019-08-16 19:31:34.843750,37.81
2019-08-16 19:31:34.859375,42.54
2019-08-16 19:31:34.875000,48.15
2019-08-16 19:31:34.890625,54.1
2019-08-16 19:31:34.906250,59.83
2019-08-16 19:31:34.921875,64.97
2019-08-16 19:31:34.937500,69.58
2019-08-16 19:31:34.953125,74.14
2019-08-16 19:31:34.968750,79.34
2019-08-16 19:31:34.984375,85.71
2019-08-16 19:31:35.000000,93.76
2019-08-16 19:31:35.015625,103.0
2019-08-16 19:31:35.031250,112.62
2019-08-16 19:31:35.046875,121.73
2019-08-16 19:31:35.062500,129.77
2019-08-16 19:31:35.078125,136.75
2019-08-16 19:31:35.093750,143.3
2019-08-16 19:31:35.109375,150.75
2019-08-16 19:31:35.125000,157.77
2019-08-16 19:31:35.140625,166.64
2019-08-16 19:31:35.156250,177.95
2019-08-16 19:31:35.171875,191.79
2019-08-16 19:31:35.187500,206.97
2019-08-16 19:31:35.203125,220.57
2019-08-16 19:31:35.218750,228.25
2019-08-16 19:31:35.234375,225.36
2019-08-16 19:31:35.250000,208.53
2019-08-16 19:31:35.265625,176.87
2019-08-16 19:31:35.281250,132.76
2019-08-16 19:31:35.296875,80.05
2019-08-16 19:31:35.312500,23.07
2019-08-16 19:31:35.328125,-34.94
2019-08-16 19:31:35.343750,-92.44
2019-08-16 19:31:35.359375,-149.16
2019-08-16 19:31:35.375000,-205.23
2019-08-16 19:31:35.390625,-260.37
2019-08-16 19:31:35.406250,-313.74
2019-08-16 19:31:35.421875,-363.87
2019-08-16 19:31:35.437500,-409.81
2019-08-16 19:31:35.453125,-450.87
2019-08-16 19:31:35.468750,-486.44
2019-08-16 19:31:35.484375,-515.65
2019-08-16 19:31:35.500000,-537.09
2019-08-16 19:31:35.515625,-549.03
2019-08-16 19:31:35.531250,-549.71
2019-08-16 19:31:35.546875,-538.05
2019-08-16 19:31:35.562500,-513.8
2019-08-16 19:31:35.578125,-478.17
2019-08-16 19:31:35.593750,-433.26
2019-08-16 19:31:35.609375,-381.69
2019-08-16 19:31:35.625000,-326.1
2019-08-16 19:31:35.640625,-268.76
2019-08-16 19:31:35.656250,-211.41
2019-08-16 19:31:35.671875,-155.35
2019-08-16 19:31:35.687500,-101.61
2019-08-16 19:31:35.703125,-51.05
2019-08-16 19:31:35.718750,-4.63
2019-08-16 19:31:35.734375,36.8
2019-08-16 19:31:35.750000,72.65
2019-08-16 19:31:35.765625,102.64
2019-08-16 19:31:35.781250,126.93
2019-08-16 19:31:35.796875,145.98
2019-08-16 19:31:35.812500,160.48
2019-08-16 19:31:35.828125,171.1
2019-08-16 19:31:35.843750,178.45
2019-08-16 19:31:35.859375,182.96
2019-08-16 19:31:35.875000,184.96
2019-08-16 19:31:35.890625,184.73
2019-08-16 19:31:35.906250,182.55
2019-08-16 19:31:35.921875,178.77
2019-08-16 19:31:35.937500,173.73
2019-08-16 19:31:35.953125,167.75
2019-08-16 19:31:35.968750,161.14
2019-08-16 19:31:35.984375,154.15
2019-08-16 19:31:36.000000,146.99
2019-08-16 19:31:36.015625,139.85
2019-08-16 19:31:36.031250,132.89
2019-08-16 19:31:36.046875,126.17
2019-08-16 19:31:36.062500,119.71
2019-08-16 19:31:36.078125,113.4
2019-08-16 19:31:36.093750,107.12
2019-08-16 19:31:36.109375,100.77
2019-08-16 19:31:36.125000,94.41
2019-08-16 19:31:36.140625,88.21
2019-08-16 19:31:36.156250,82.46
2019-08-16 19:31:36.171875,77.47
2019-08-16 19:31:36.187500,73.34
2019-08-16 19:31:36.203125,69.97
2019-08-16 19:31:36.218750,66.97
2019-08-16 19:31:36.234375,63.96
2019-08-16 19:31:36.250000,60.62
2019-08-16 19:31:36.265625,56.99
2019-08-16 19:31:36.281250,53.4
2019-08-16 19:31:36.296875,50.41
2019-08-16 19:31:36.312500,48.51
2019-08-16 19:31:36.328125,47.84
2019-08-16 19:31:36.343750,48.1
2019-08-16 19:31:36.359375,48.46
2019-08-16 19:31:36.375000,48.03
2019-08-16 19:31:36.390625,46.12
2019-08-16 19:31:36.406250,42.5
2019-08-16 19:31:36.421875,37.44
2019-08-16 19:31:36.437500,31.39
2019-08-16 19:31:36.453125,25.04
2019-08-16 19:31:36.468750,18.5
2019-08-16 19:31:36.484375,11.48
2019-08-16 19:31:36.500000,3.24
2019-08-16 19:31:36.515625,-7.15
2019-08-16 19:31:36.531250,-20.54
2019-08-16 19:31:36.546875,-37.47
2019-08-16 19:31:36.562500,-57.81
2019-08-16 19:31:36.578125,-80.46
2019-08-16 19:31:36.593750,-103.17
2019-08-16 19:31:36.609375,-122.77
2019-08-16 19:31:36.625000,-134.87
2019-08-16 19:31:36.640625,-136.5
2019-08-16 19:31:36.656250,-126.34
2019-08-16 19:31:36.671875,-105.22
2019-08-16 19:31:36.687500,-76.22
2019-08-16 19:31:36.703125,-43.83
2019-08-16 19:31:36.718750,-12.87
2019-08-16 19:31:36.734375,12.84
2019-08-16 19:31:36.750000,31.11
2019-08-16 19:31:36.765625,41.52
2019-08-16 19:31:36.781250,45.06
2019-08-16 19:31:36.796875,43.64
2019-08-16 19:31:36.812500,39.64
2019-08-16 19:31:36.828125,35.35
2019-08-16 19:31:36.843750,32.72
2019-08-16 19:31:36.859375,32.89
2019-08-16 19:31:36.875000,35.86
2019-08-16 19:31:36.890625,40.42
2019-08-16 19:31:36.906250,44.66
2019-08-16 19:31:36.921875,46.58
2019-08-16 19:31:36.937500,45.02
2019-08-16 19:31:36.953125,40.73
2019-08-16 19:31:36.968750,35.68
2019-08-16 19:31:36.984375,32.51
2019-08-16 19:31:37.000000,33.08
2019-08-16 19:31:37.015625,37.47
2019-08-16 19:31:37.031250,43.74
2019-08-16 19:31:37.046875,48.92
2019-08-16 19:31:37.062500,50.22
2019-08-16 19:31:37.078125,46.6
2019-08-16 19:31:37.093750,39.31
2019-08-16 19:31:37.109375,31.1
2019-08-16 19:31:37.125000,25.2
2019-08-16 19:31:37.140625,23.99
2019-08-16 19:31:37.156250,28.34
2019-08-16 19:31:37.171875,37.54
2019-08-16 19:31:37.187500,49.12
2019-08-16 19:31:37.203125,58.64
2019-08-16 19:31:37.218750,59.91
2019-08-16 19:31:37.234375,46.45
2019-08-16 19:31:37.250000,14.01
2019-08-16 19:31:37.265625,-36.33
2019-08-16 19:31:37.281250,-97.02
2019-08-16 19:31:37.296875,-155.64
2019-08-16 19:31:37.312500,-199.35
2019-08-16 19:31:37.328125,-219.98
2019-08-16 19:31:37.343750,-217.07
2019-08-16 19:31:37.359375,-197.1
2019-08-16 19:31:37.375000,-169.62
2019-08-16 19:31:37.390625,-142.65
2019-08-16 19:31:37.406250,-119.99
2019-08-16 19:31:37.421875,-101.72
2019-08-16 19:31:37.437500,-87.07
2019-08-16 19:31:37.453125,-76.49
2019-08-16 19:31:37.468750,-71.81
2019-08-16 19:31:37.484375,-74.33
2019-08-16 19:31:37.500000,-81.98
2019-08-16 19:31:37.515625,-88.44
2019-08-16 19:31:37.531250,-85.57
2019-08-16 19:31:37.546875,-67.08
2019-08-16 19:31:37.562500,-32.39
2019-08-16 19:31:37.578125,12.66
2019-08-16 19:31:37.593750,58.42
2019-08-16 19:31:37.609375,95.4
2019-08-16 19:31:37.625000,117.66
2019-08-16 19:31:37.640625,123.85
2019-08-16 19:31:37.656250,116.18
2019-08-16 19:31:37.671875,99.0
2019-08-16 19:31:37.687500,77.97
2019-08-16 19:31:37.703125,59.45
2019-08-16 19:31:37.718750,49.58
2019-08-16 19:31:37.734375,51.95
2019-08-16 19:31:37.750000,64.95
2019-08-16 19:31:37.765625,81.2
2019-08-16 19:31:37.781250,89.79
2019-08-16 19:31:37.796875,81.95
2019-08-16 19:31:37.812500,56.53
2019-08-16 19:31:37.828125,21.99
2019-08-16 19:31:37.843750,-7.31
2019-08-16 19:31:37.859375,-18.69
2019-08-16 19:31:37.875000,-8.45
2019-08-16 19:31:37.890625,16.13
2019-08-16 19:31:37.906250,40.77
2019-08-16 19:31:37.921875,52.03
2019-08-16 19:31:37.937500,43.95
2019-08-16 19:31:37.953125,20.02
2019-08-16 19:31:37.968750,-9.77
2019-08-16 19:31:37.984375,-35.04
2019-08-16 19:31:38.000000,-49.69
2019-08-16 19:31:38.015625,-53.65
2019-08-16 19:31:38.031250,-51.11
2019-08-16 19:31:38.046875,-46.96
2019-08-16 19:31:38.062500,-43.76
2019-08-16 19:31:38.078125,-40.36
2019-08-16 19:31:38.093750,-32.62
2019-08-16 19:31:38.109375,-15.31
2019-08-16 19:31:38.125000,15.19
2019-08-16 19:31:38.140625,58.49
2019-08-16 19:31:38.156250,109.02
2019-08-16 19:31:38.171875,157.01
2019-08-16 19:31:38.187500,191.54
2019-08-16 19:31:38.203125,204.67
2019-08-16 19:31:38.218750,194.99
2019-08-16 19:31:38.234375,168.42
2019-08-16 19:31:38.250000,135.65
2019-08-16 19:31:38.265625,107.46
2019-08-16 19:31:38.281250,89.94
2019-08-16 19:31:38.296875,82.73
2019-08-16 19:31:38.312500,80.53
2019-08-16 19:31:38.328125,77.14
2019-08-16 19:31:38.343750,69.13
2019-08-16 19:31:38.359375,57.41
2019-08-16 19:31:38.375000,45.73
2019-08-16 19:31:38.390625,37.85
2019-08-16 19:31:38.406250,35.06
2019-08-16 19:31:38.421875,35.13
2019-08-16 19:31:38.437500,33.54
2019-08-16 19:31:38.453125,25.65
2019-08-16 19:31:38.468750,8.75
2019-08-16 19:31:38.484375,-17.48
2019-08-16 19:31:38.500000,-51.67
2019-08-16 19:31:38.515625,-92.0
2019-08-16 19:31:38.531250,-136.77
2019-08-16 19:31:38.546875,-184.07
2019-08-16 19:31:38.562500,-230.93
2019-08-16 19:31:38.578125,-273.24
2019-08-16 19:31:38.593750,-306.54
2019-08-16 19:31:38.609375,-327.66
2019-08-16 19:31:38.625000,-336.14
2019-08-16 19:31:38.640625,-333.99
2019-08-16 19:31:38.656250,-325.06
2019-08-16 19:31:38.671875,-313.14
2019-08-16 19:31:38.687500,-300.61
2019-08-16 19:31:38.703125,-288.59
2019-08-16 19:31:38.718750,-278.01
2019-08-16 19:31:38.734375,-270.62
2019-08-16 19:31:38.750000,-268.22
2019-08-16 19:31:38.765625,-271.24
2019-08-16 19:31:38.781250,-277.25
2019-08-16 19:31:38.796875,-280.7
2019-08-16 19:31:38.812500,-274.28
2019-08-16 19:31:38.828125,-250.99
2019-08-16 19:31:38.843750,-206.67
2019-08-16 19:31:38.859375,-141.2
2019-08-16 19:31:38.875000,-58.76
2019-08-16 19:31:38.890625,32.49
2019-08-16 19:31:38.906250,121.32
2019-08-16 19:31:38.921875,195.34
2019-08-16 19:31:38.937500,244.33
2019-08-16 19:31:38.953125,263.85
2019-08-16 19:31:38.968750,258.5
2019-08-16 19:31:38.984375,241.0
2019-08-16 19:31:39.000000,227.43
2019-08-16 19:31:39.015625,229.7
2019-08-16 19:31:39.031250,249.49
2019-08-16 19:31:39.046875,277.48
2019-08-16 19:31:39.062500,298.1
2019-08-16 19:31:39.078125,297.91
2019-08-16 19:31:39.093750,272.5
2019-08-16 19:31:39.109375,228.21
2019-08-16 19:31:39.125000,178.22
2019-08-16 19:31:39.140625,136.05
2019-08-16 19:31:39.156250,110.13
2019-08-16 19:31:39.171875,102.19
2019-08-16 19:31:39.187500,109.02
2019-08-16 19:31:39.203125,125.38
2019-08-16 19:31:39.218750,145.78
2019-08-16 19:31:39.234375,165.01
2019-08-16 19:31:39.250000,177.9
2019-08-16 19:31:39.265625,179.7
2019-08-16 19:31:39.281250,167.67
2019-08-16 19:31:39.296875,142.51
2019-08-16 19:31:39.312500,108.53
2019-08-16 19:31:39.328125,72.18
2019-08-16 19:31:39.343750,40.25
2019-08-16 19:31:39.359375,18.15
2019-08-16 19:31:39.375000,9.09
2019-08-16 19:31:39.390625,14.12
2019-08-16 19:31:39.406250,32.22
2019-08-16 19:31:39.421875,60.26
2019-08-16 19:31:39.437500,93.47
2019-08-16 19:31:39.453125,125.97
2019-08-16 19:31:39.468750,152.46
2019-08-16 19:31:39.484375,169.63
2019-08-16 19:31:39.500000,177.13
2019-08-16 19:31:39.515625,177.34
2019-08-16 19:31:39.531250,173.99
2019-08-16 19:31:39.546875,170.59
2019-08-16 19:31:39.562500,168.81
2019-08-16 19:31:39.578125,167.98
2019-08-16 19:31:39.593750,165.94
2019-08-16 19:31:39.609375,160.31
2019-08-16 19:31:39.625000,149.7
2019-08-16 19:31:39.640625,134.41
2019-08-16 19:31:39.656250,116.37
2019-08-16 19:31:39.671875,98.14
2019-08-16 19:31:39.687500,81.55
2019-08-16 19:31:39.703125,67.43
2019-08-16 19:31:39.718750,54.02
2019-08-16 19:31:39.734375,38.26
2019-08-16 19:31:39.750000,17.29
2019-08-16 19:31:39.765625,-10.78
2019-08-16 19:31:39.781250,-46.61
2019-08-16 19:31:39.796875,-90.1
2019-08-16 19:31:39.812500,-140.89
2019-08-16 19:31:39.828125,-197.51
2019-08-16 19:31:39.843750,-256.52
2019-08-16 19:31:39.859375,-312.23
2019-08-16 19:31:39.875000,-356.91
2019-08-16 19:31:39.890625,-382.92
2019-08-16 19:31:39.906250,-385.98
2019-08-16 19:31:39.921875,-366.95
2019-08-16 19:31:39.937500,-331.42
2019-08-16 19:31:39.953125,-287.13
2019-08-16 19:31:39.968750,-240.8
2019-08-16 19:31:39.984375,-196.52
2019-08-16 19:31:40.000000,-156.56
2019-08-16 19:31:40.015625,-123.69
2019-08-16 19:31:40.031250,-101.27
2019-08-16 19:31:40.046875,-93.19
2019-08-16 19:31:40.062500,-101.13
2019-08-16 19:31:40.078125,-122.01
2019-08-16 19:31:40.093750,-147.35
2019-08-16 19:31:40.109375,-165.74
2019-08-16 19:31:40.125000,-166.58
2019-08-16 19:31:40.140625,-144.98
2019-08-16 19:31:40.156250,-102.76
2019-08-16 19:31:40.171875,-46.55
2019-08-16 19:31:40.187500,15.21
2019-08-16 19:31:40.203125,75.78
2019-08-16 19:31:40.218750,131.25
2019-08-16 19:31:40.234375,180.01
2019-08-16 19:31:40.250000,221.33
2019-08-16 19:31:40.265625,254.3
2019-08-16 19:31:40.281250,277.49
2019-08-16 19:31:40.296875,289.77
2019-08-16 19:31:40.312500,291.46
2019-08-16 19:31:40.328125,283.31
2019-08-16 19:31:40.343750,266.76
2019-08-16 19:31:40.359375,243.31
2019-08-16 19:31:40.375000,214.3
2019-08-16 19:31:40.390625,180.77
2019-08-16 19:31:40.406250,143.75
2019-08-16 19:31:40.421875,104.28
2019-08-16 19:31:40.437500,63.99
2019-08-16 19:31:40.453125,25.02
2019-08-16 19:31:40.468750,-10.6
2019-08-16 19:31:40.484375,-41.27
2019-08-16 19:31:40.500000,-66.21
2019-08-16 19:31:40.515625,-85.55
2019-08-16 19:31:40.531250,-100.0
2019-08-16 19:31:40.546875,-110.4
2019-08-16 19:31:40.562500,-117.54
2019-08-16 19:31:40.578125,-121.67
2019-08-16 19:31:40.593750,-122.84
2019-08-16 19:31:40.609375,-121.39
2019-08-16 19:31:40.625000,-118.24
2019-08-16 19:31:40.640625,-115.0
2019-08-16 19:31:40.656250,-113.9
2019-08-16 19:31:40.671875,-117.1
2019-08-16 19:31:40.687500,-125.93
2019-08-16 19:31:40.703125,-140.04
2019-08-16 19:31:40.718750,-156.66
2019-08-16 19:31:40.734375,-170.79
2019-08-16 19:31:40.750000,-176.63
2019-08-16 19:31:40.765625,-169.41
2019-08-16 19:31:40.781250,-147.32
2019-08-16 19:31:40.796875,-112.72
2019-08-16 19:31:40.812500,-71.5
2019-08-16 19:31:40.828125,-30.56
2019-08-16 19:31:40.843750,3.53
2019-08-16 19:31:40.859375,27.09
2019-08-16 19:31:40.875000,40.41
2019-08-16 19:31:40.890625,47.11
2019-08-16 19:31:40.906250,51.83
2019-08-16 19:31:40.921875,58.01
2019-08-16 19:31:40.937500,66.38
2019-08-16 19:31:40.953125,74.96
2019-08-16 19:31:40.968750,80.07
2019-08-16 19:31:40.984375,77.78
2019-08-16 19:31:41.000000,65.58
2019-08-16 19:31:41.015625,43.45
2019-08-16 19:31:41.031250,14.22
2019-08-16 19:31:41.046875,-16.52
2019-08-16 19:31:41.062500,-41.72
2019-08-16 19:31:41.078125,-54.81
2019-08-16 19:31:41.093750,-51.94
2019-08-16 19:31:41.109375,-33.23
2019-08-16 19:31:41.125000,-2.91
2019-08-16 19:31:41.140625,32.38
2019-08-16 19:31:41.156250,65.83
2019-08-16 19:31:41.171875,92.45
2019-08-16 19:31:41.187500,109.6
2019-08-16 19:31:41.203125,116.61
2019-08-16 19:31:41.218750,113.28
2019-08-16 19:31:41.234375,99.59
2019-08-16 19:31:41.250000,75.48
2019-08-16 19:31:41.265625,41.63
2019-08-16 19:31:41.281250,0.11
2019-08-16 19:31:41.296875,-45.95
2019-08-16 19:31:41.312500,-93.33
2019-08-16 19:31:41.328125,-139.69
2019-08-16 19:31:41.343750,-184.03
2019-08-16 19:31:41.359375,-226.48
2019-08-16 19:31:41.375000,-267.53
2019-08-16 19:31:41.390625,-307.03
2019-08-16 19:31:41.406250,-343.58
2019-08-16 19:31:41.421875,-374.78
2019-08-16 19:31:41.437500,-397.86
2019-08-16 19:31:41.453125,-410.58
2019-08-16 19:31:41.468750,-413.36
2019-08-16 19:31:41.484375,-407.06
2019-08-16 19:31:41.500000,-393.16
2019-08-16 19:31:41.515625,-373.12
2019-08-16 19:31:41.531250,-348.09
2019-08-16 19:31:41.546875,-318.49
2019-08-16 19:31:41.562500,-284.28
2019-08-16 19:31:41.578125,-245.41
2019-08-16 19:31:41.593750,-202.48
2019-08-16 19:31:41.609375,-157.02
2019-08-16 19:31:41.625000,-111.16
2019-08-16 19:31:41.640625,-67.41
2019-08-16 19:31:41.656250,-27.8
2019-08-16 19:31:41.671875,6.58
2019-08-16 19:31:41.687500,35.85
2019-08-16 19:31:41.703125,60.97
2019-08-16 19:31:41.718750,83.31
2019-08-16 19:31:41.734375,104.03
2019-08-16 19:31:41.750000,123.67
2019-08-16 19:31:41.765625,142.42
2019-08-16 19:31:41.781250,159.8
2019-08-16 19:31:41.796875,175.34
2019-08-16 19:31:41.812500,188.64
2019-08-16 19:31:41.828125,199.76
2019-08-16 19:31:41.843750,209.23
2019-08-16 19:31:41.859375,218.36
2019-08-16 19:31:41.875000,229.01
2019-08-16 19:31:41.890625,243.09
2019-08-16 19:31:41.906250,261.65
2019-08-16 19:31:41.921875,283.82
2019-08-16 19:31:41.937500,306.69
2019-08-16 19:31:41.953125,325.69
2019-08-16 19:31:41.968750,336.17
2019-08-16 19:31:41.984375,335.03
2019-08-16 19:31:42.000000,321.9
2019-08-16 19:31:42.015625,299.39
2019-08-16 19:31:42.031250,272.14
2019-08-16 19:31:42.046875,245.59
2019-08-16 19:31:42.062500,223.65
2019-08-16 19:31:42.078125,209.24
2019-08-16 19:31:42.093750,203.81
2019-08-16 19:31:42.109375,207.46
2019-08-16 19:31:42.125000,219.06
2019-08-16 19:31:42.140625,236.28
2019-08-16 19:31:42.156250,255.93
2019-08-16 19:31:42.171875,274.25
2019-08-16 19:31:42.187500,287.63
2019-08-16 19:31:42.203125,293.14
2019-08-16 19:31:42.218750,289.24
2019-08-16 19:31:42.234375,275.66
2019-08-16 19:31:42.250000,253.44
2019-08-16 19:31:42.265625,224.6
2019-08-16 19:31:42.281250,191.45
2019-08-16 19:31:42.296875,156.25
2019-08-16 19:31:42.312500,120.76
2019-08-16 19:31:42.328125,86.23
2019-08-16 19:31:42.343750,53.31
2019-08-16 19:31:42.359375,22.54
2019-08-16 19:31:42.375000,-5.73
2019-08-16 19:31:42.390625,-31.1
2019-08-16 19:31:42.406250,-53.14
2019-08-16 19:31:42.421875,-71.53
2019-08-16 19:31:42.437500,-86.19
2019-08-16 19:31:42.453125,-97.34
2019-08-16 19:31:42.468750,-105.45
2019-08-16 19:31:42.484375,-111.19
2019-08-16 19:31:42.500000,-115.06
2019-08-16 19:31:42.515625,-117.5
2019-08-16 19:31:42.531250,-118.7
2019-08-16 19:31:42.546875,-118.72
2019-08-16 19:31:42.562500,-117.59
2019-08-16 19:31:42.578125,-115.35
2019-08-16 19:31:42.593750,-112.09
2019-08-16 19:31:42.609375,-108.03
2019-08-16 19:31:42.625000,-103.42
2019-08-16 19:31:42.640625,-98.47
2019-08-16 19:31:42.656250,-93.32
2019-08-16 19:31:42.671875,-88.05
2019-08-16 19:31:42.687500,-82.66
2019-08-16 19:31:42.703125,-77.13
2019-08-16 19:31:42.718750,-71.48
2019-08-16 19:31:42.734375,-65.69
2019-08-16 19:31:42.750000,-59.8
2019-08-16 19:31:42.765625,-53.9
2019-08-16 19:31:42.781250,-48.03
2019-08-16 19:31:42.796875,-42.24
2019-08-16 19:31:42.812500,-36.58
2019-08-16 19:31:42.828125,-31.08
2019-08-16 19:31:42.843750,-25.71
2019-08-16 19:31:42.859375,-20.47
2019-08-16 19:31:42.875000,-15.28
2019-08-16 19:31:42.890625,-9.99
2019-08-16 19:31:42.906250,-4.54
2019-08-16 19:31:42.921875,1.2
2019-08-16 19:31:42.937500,7.24
2019-08-16 19:31:42.953125,13.48
2019-08-16 19:31:42.968750,19.63
2019-08-16 19:31:42.984375,25.3
2019-08-16 19:31:43.000000,29.84
2019-08-16 19:31:43.015625,32.58
2019-08-16 19:31:43.031250,33.13
2019-08-16 19:31:43.046875,30.69
2019-08-16 19:31:43.062500,24.72
2019-08-16 19:31:43.078125,15.03
2019-08-16 19:31:43.093750,1.85
2019-08-16 19:31:43.109375,-14.25
2019-08-16 19:31:43.125000,-32.27
2019-08-16 19:31:43.140625,-50.99
2019-08-16 19:31:43.156250,-69.01
2019-08-16 19:31:43.171875,-84.9
2019-08-16 19:31:43.187500,-97.4
2019-08-16 19:31:43.203125,-105.44
2019-08-16 19:31:43.218750,-108.3
2019-08-16 19:31:43.234375,-105.77
2019-08-16 19:31:43.250000,-98.06
2019-08-16 19:31:43.265625,-85.65
2019-08-16 19:31:43.281250,-69.45
2019-08-16 19:31:43.296875,-50.55
2019-08-16 19:31:43.312500,-30.08
2019-08-16 19:31:43.328125,-9.11
2019-08-16 19:31:43.343750,11.45
2019-08-16 19:31:43.359375,30.81
2019-08-16 19:31:43.375000,48.38
2019-08-16 19:31:43.390625,63.76
2019-08-16 19:31:43.406250,76.78
2019-08-16 19:31:43.421875,87.3
2019-08-16 19:31:43.437500,95.17
2019-08-16 19:31:43.453125,100.29
2019-08-16 19:31:43.468750,102.61
2019-08-16 19:31:43.484375,102.11
2019-08-16 19:31:43.500000,98.77
2019-08-16 19:31:43.515625,92.47
2019-08-16 19:31:43.531250,83.1
2019-08-16 19:31:43.546875,70.78
2019-08-16 19:31:43.562500,55.82
2019-08-16 19:31:43.578125,38.86
2019-08-16 19:31:43.593750,20.85
2019-08-16 19:31:43.609375,2.97
2019-08-16 19:31:43.625000,-13.41
2019-08-16 19:31:43.640625,-27.04
2019-08-16 19:31:43.656250,-37.05
2019-08-16 19:31:43.671875,-42.96
2019-08-16 19:31:43.687500,-44.79
2019-08-16 19:31:43.703125,-42.89
2019-08-16 19:31:43.718750,-37.66
2019-08-16 19:31:43.734375,-29.56
2019-08-16 19:31:43.750000,-19.08
2019-08-16 19:31:43.765625,-6.39
2019-08-16 19:31:43.781250,8.52
2019-08-16 19:31:43.796875,25.75
2019-08-16 19:31:43.812500,45.11
2019-08-16 19:31:43.828125,66.44
2019-08-16 19:31:43.843750,89.67
2019-08-16 19:31:43.859375,114.79
2019-08-16 19:31:43.875000,141.74
2019-08-16 19:31:43.890625,170.28
2019-08-16 19:31:43.906250,199.91
2019-08-16 19:31:43.921875,229.79
2019-08-16 19:31:43.937500,258.54
2019-08-16 19:31:43.953125,283.53
2019-08-16 19:31:43.968750,301.98
2019-08-16 19:31:43.984375,311.39
2019-08-16 19:31:44.000000,311.43
2019-08-16 19:31:44.015625,302.6
2019-08-16 19:31:44.031250,286.74
2019-08-16 19:31:44.046875,266.62
2019-08-16 19:31:44.062500,245.19
2019-08-16 19:31:44.078125,224.98
2019-08-16 19:31:44.093750,206.03
2019-08-16 19:31:44.109375,187.5
2019-08-16 19:31:44.125000,168.27
2019-08-16 19:31:44.140625,147.84
2019-08-16 19:31:44.156250,126.49
2019-08-16 19:31:44.171875,105.39
2019-08-16 19:31:44.187500,85.84
2019-08-16 19:31:44.203125,68.46
2019-08-16 19:31:44.218750,52.62
2019-08-16 19:31:44.234375,33.85
2019-08-16 19:31:44.250000,7.08
2019-08-16 19:31:44.265625,-31.96
2019-08-16 19:31:44.281250,-85.14
2019-08-16 19:31:44.296875,-151.3
2019-08-16 19:31:44.312500,-226.56
2019-08-16 19:31:44.328125,-305.98
2019-08-16 19:31:44.343750,-385.13
2019-08-16 19:31:44.359375,-461.17
2019-08-16 19:31:44.375000,-536.38
2019-08-16 19:31:44.390625,-614.24
2019-08-16 19:31:44.406250,-697.72
2019-08-16 19:31:44.421875,-788.1
2019-08-16 19:31:44.437500,-884.58
2019-08-16 19:31:44.453125,-984.74
2019-08-16 19:31:44.468750,-1085.03
2019-08-16 19:31:44.484375,-1180.9
2019-08-16 19:31:44.500000,-1243.84
2019-08-16 19:31:44.515625,-1250.07
2019-08-16 19:31:44.531250,-1184.3
2019-08-16 19:31:44.546875,-1046.73
2019-08-16 19:31:44.562500,-854.79
2019-08-16 19:31:44.578125,-637.38
2019-08-16 19:31:44.593750,-424.46
2019-08-16 19:31:44.609375,-238.0
2019-08-16 19:31:44.625000,-88.21
2019-08-16 19:31:44.640625,25.29
2019-08-16 19:31:44.656250,105.95
2019-08-16 19:31:44.671875,158.45
2019-08-16 19:31:44.687500,186.72
2019-08-16 19:31:44.703125,194.3
2019-08-16 19:31:44.718750,185.72
2019-08-16 19:31:44.734375,167.25
2019-08-16 19:31:44.750000,146.46
2019-08-16 19:31:44.765625,130.43
2019-08-16 19:31:44.781250,121.36
2019-08-16 19:31:44.796875,119.45
2019-08-16 19:31:44.812500,122.72
2019-08-16 19:31:44.828125,128.38
2019-08-16 19:31:44.843750,134.27
2019-08-16 19:31:44.859375,140.18
2019-08-16 19:31:44.875000,147.7
2019-08-16 19:31:44.890625,159.59
2019-08-16 19:31:44.906250,178.38
2019-08-16 19:31:44.921875,205.43
2019-08-16 19:31:44.937500,239.19
2019-08-16 19:31:44.953125,275.92
2019-08-16 19:31:44.968750,310.98
2019-08-16 19:31:44.984375,340.06
2019-08-16 19:31:45.000000,360.9
2019-08-16 19:31:45.015625,373.54
2019-08-16 19:31:45.031250,380.46
2019-08-16 19:31:45.046875,385.33
2019-08-16 19:31:45.062500,390.08
2019-08-16 19:31:45.078125,395.22
2019-08-16 19:31:45.093750,399.18
2019-08-16 19:31:45.109375,399.4
2019-08-16 19:31:45.125000,393.67
2019-08-16 19:31:45.140625,381.28
2019-08-16 19:31:45.156250,362.43
2019-08-16 19:31:45.171875,337.15
2019-08-16 19:31:45.187500,304.55
2019-08-16 19:31:45.203125,263.3
2019-08-16 19:31:45.218750,214.06
2019-08-16 19:31:45.234375,161.05
2019-08-16 19:31:45.250000,112.59
2019-08-16 19:31:45.265625,78.48
2019-08-16 19:31:45.281250,65.45
2019-08-16 19:31:45.296875,72.67
2019-08-16 19:31:45.312500,90.59
2019-08-16 19:31:45.328125,104.53
2019-08-16 19:31:45.343750,101.11
2019-08-16 19:31:45.359375,74.77
2019-08-16 19:31:45.375000,29.23
2019-08-16 19:31:45.390625,-25.22
2019-08-16 19:31:45.406250,-77.09
2019-08-16 19:31:45.421875,-118.1
2019-08-16 19:31:45.437500,-145.03
2019-08-16 19:31:45.453125,-158.08
2019-08-16 19:31:45.468750,-158.29
2019-08-16 19:31:45.484375,-146.32
2019-08-16 19:31:45.500000,-122.63
2019-08-16 19:31:45.515625,-89.52
2019-08-16 19:31:45.531250,-51.98
2019-08-16 19:31:45.546875,-16.59
2019-08-16 19:31:45.562500,11.7
2019-08-16 19:31:45.578125,32.1
2019-08-16 19:31:45.593750,48.24
2019-08-16 19:31:45.609375,65.63
2019-08-16 19:31:45.625000,87.68
2019-08-16 19:31:45.640625,113.35
2019-08-16 19:31:45.656250,137.26
2019-08-16 19:31:45.671875,152.51
2019-08-16 19:31:45.687500,154.59
2019-08-16 19:31:45.703125,144.53
2019-08-16 19:31:45.718750,129.3
2019-08-16 19:31:45.734375,119.66
2019-08-16 19:31:45.750000,126.21
2019-08-16 19:31:45.765625,155.23
2019-08-16 19:31:45.781250,206.36
2019-08-16 19:31:45.796875,272.45
2019-08-16 19:31:45.812500,341.63
2019-08-16 19:31:45.828125,398.39
2019-08-16 19:31:45.843750,429.05
2019-08-16 19:31:45.859375,425.31
2019-08-16 19:31:45.875000,386.3
2019-08-16 19:31:45.890625,317.83
2019-08-16 19:31:45.906250,229.49
2019-08-16 19:31:45.921875,131.31
2019-08-16 19:31:45.937500,31.72
2019-08-16 19:31:45.953125,-62.78
2019-08-16 19:31:45.968750,-147.03
2019-08-16 19:31:45.984375,-217.07
2019-08-16 19:31:46.000000,-270.71
2019-08-16 19:31:46.015625,-308.25
2019-08-16 19:31:46.031250,-332.55
2019-08-16 19:31:46.046875,-348.3
2019-08-16 19:31:46.062500,-360.63
2019-08-16 19:31:46.078125,-373.51
2019-08-16 19:31:46.093750,-388.89
2019-08-16 19:31:46.109375,-406.29
2019-08-16 19:31:46.125000,-423.69
2019-08-16 19:31:46.140625,-438.79
2019-08-16 19:31:46.156250,-449.97
2019-08-16 19:31:46.171875,-456.77
2019-08-16 19:31:46.187500,-459.82
2019-08-16 19:31:46.203125,-459.96
2019-08-16 19:31:46.218750,-457.47
2019-08-16 19:31:46.234375,-453.59
2019-08-16 19:31:46.250000,-446.93
2019-08-16 19:31:46.265625,-435.16
2019-08-16 19:31:46.281250,-416.25
2019-08-16 19:31:46.296875,-389.32
2019-08-16 19:31:46.312500,-355.15
2019-08-16 19:31:46.328125,-316.11
2019-08-16 19:31:46.343750,-275.32
2019-08-16 19:31:46.359375,-235.87
2019-08-16 19:31:46.375000,-200.08
2019-08-16 19:31:46.390625,-168.73
2019-08-16 19:31:46.406250,-141.51
2019-08-16 19:31:46.421875,-117.27
2019-08-16 19:31:46.437500,-94.6
2019-08-16 19:31:46.453125,-72.34
2019-08-16 19:31:46.468750,-49.9
2019-08-16 19:31:46.484375,-26.95
2019-08-16 19:31:46.500000,-3.42
2019-08-16 19:31:46.515625,21.2
2019-08-16 19:31:46.531250,48.21
2019-08-16 19:31:46.546875,79.69
2019-08-16 19:31:46.562500,118.38
2019-08-16 19:31:46.578125,167.26
2019-08-16 19:31:46.593750,228.98
2019-08-16 19:31:46.609375,303.07
2019-08-16 19:31:46.625000,387.11
2019-08-16 19:31:46.640625,476.2
2019-08-16 19:31:46.656250,563.13
2019-08-16 19:31:46.671875,639.32
2019-08-16 19:31:46.687500,695.94
2019-08-16 19:31:46.703125,725.65
2019-08-16 19:31:46.718750,724.49
2019-08-16 19:31:46.734375,693.09
2019-08-16 19:31:46.750000,636.46
2019-08-16 19:31:46.765625,563.06
2019-08-16 19:31:46.781250,482.35
2019-08-16 19:31:46.796875,402.56
2019-08-16 19:31:46.812500,329.26
2019-08-16 19:31:46.828125,264.99
2019-08-16 19:31:46.843750,209.97
2019-08-16 19:31:46.859375,163.18
2019-08-16 19:31:46.875000,123.58
2019-08-16 19:31:46.890625,90.19
2019-08-16 19:31:46.906250,62.2
2019-08-16 19:31:46.921875,38.52
2019-08-16 19:31:46.937500,17.88
2019-08-16 19:31:46.953125,-0.79
2019-08-16 19:31:46.968750,-17.85
2019-08-16 19:31:46.984375,-32.94
2019-08-16 19:31:47.000000,-45.52
2019-08-16 19:31:47.015625,-54.76
2019-08-16 19:31:47.031250,-60.54
2019-08-16 19:31:47.046875,-63.33
2019-08-16 19:31:47.062500,-64.18
2019-08-16 19:31:47.078125,-64.23
2019-08-16 19:31:47.093750,-64.17
2019-08-16 19:31:47.109375,-63.98
2019-08-16 19:31:47.125000,-63.01
2019-08-16 19:31:47.140625,-60.46
2019-08-16 19:31:47.156250,-55.41
2019-08-16 19:31:47.171875,-47.41
2019-08-16 19:31:47.187500,-36.7
2019-08-16 19:31:47.203125,-24.25
2019-08-16 19:31:47.218750,-11.57
2019-08-16 19:31:47.234375,-0.38
2019-08-16 19:31:47.250000,7.81
2019-08-16 19:31:47.265625,12.68
2019-08-16 19:31:47.281250,12.84
2019-08-16 19:31:47.296875,7.11
2019-08-16 19:31:47.312500,-5.25
2019-08-16 19:31:47.328125,-24.31
2019-08-16 19:31:47.343750,-49.55
2019-08-16 19:31:47.359375,-79.78
2019-08-16 19:31:47.375000,-113.09
2019-08-16 19:31:47.390625,-146.98
2019-08-16 19:31:47.406250,-178.6
2019-08-16 19:31:47.421875,-205.35
2019-08-16 19:31:47.437500,-224.89
2019-08-16 19:31:47.453125,-235.87
2019-08-16 19:31:47.468750,-237.97
2019-08-16 19:31:47.484375,-231.88
2019-08-16 19:31:47.500000,-219.16
2019-08-16 19:31:47.515625,-201.82
2019-08-16 19:31:47.531250,-181.96
2019-08-16 19:31:47.546875,-161.5
2019-08-16 19:31:47.562500,-141.98
2019-08-16 19:31:47.578125,-124.21
2019-08-16 19:31:47.593750,-108.56
2019-08-16 19:31:47.609375,-94.97
2019-08-16 19:31:47.625000,-83.05
2019-08-16 19:31:47.640625,-72.39
2019-08-16 19:31:47.656250,-62.52
2019-08-16 19:31:47.671875,-52.57
2019-08-16 19:31:47.687500,-42.43
2019-08-16 19:31:47.703125,-32.11
2019-08-16 19:31:47.718750,-21.47
2019-08-16 19:31:47.734375,-10.39
2019-08-16 19:31:47.750000,1.26
2019-08-16 19:31:47.765625,13.58
2019-08-16 19:31:47.781250,26.46
2019-08-16 19:31:47.796875,39.61
2019-08-16 19:31:47.812500,52.5
2019-08-16 19:31:47.828125,64.02
2019-08-16 19:31:47.843750,72.95
2019-08-16 19:31:47.859375,78.13
2019-08-16 19:31:47.875000,78.66
2019-08-16 19:31:47.890625,74.06
2019-08-16 19:31:47.906250,64.52
2019-08-16 19:31:47.921875,50.8
2019-08-16 19:31:47.937500,34.4
2019-08-16 19:31:47.953125,17.23
2019-08-16 19:31:47.968750,1.18
2019-08-16 19:31:47.984375,-11.91
2019-08-16 19:31:48.000000,-20.65
2019-08-16 19:31:48.015625,-24.31
2019-08-16 19:31:48.031250,-22.87
2019-08-16 19:31:48.046875,-17.02
2019-08-16 19:31:48.062500,-8.04
2019-08-16 19:31:48.078125,2.58
2019-08-16 19:31:48.093750,13.3
2019-08-16 19:31:48.109375,22.75
2019-08-16 19:31:48.125000,30.14
2019-08-16 19:31:48.140625,35.06
2019-08-16 19:31:48.156250,37.45
2019-08-16 19:31:48.171875,37.69
2019-08-16 19:31:48.187500,36.33
2019-08-16 19:31:48.203125,33.94
2019-08-16 19:31:48.218750,31.05
2019-08-16 19:31:48.234375,27.99
2019-08-16 19:31:48.250000,24.93
2019-08-16 19:31:48.265625,22.12
2019-08-16 19:31:48.281250,19.72
2019-08-16 19:31:48.296875,17.54
2019-08-16 19:31:48.312500,15.57
2019-08-16 19:31:48.328125,13.77
2019-08-16 19:31:48.343750,12.13
2019-08-16 19:31:48.359375,10.62
2019-08-16 19:31:48.375000,9.26
2019-08-16 19:31:48.390625,8.22
2019-08-16 19:31:48.406250,7.35
2019-08-16 19:31:48.421875,6.61
2019-08-16 19:31:48.437500,5.93
2019-08-16 19:31:48.453125,5.29
2019-08-16 19:31:48.468750,4.64
2019-08-16 19:31:48.484375,3.97
2019-08-16 19:31:48.500000,3.27
2019-08-16 19:31:48.515625,2.58
2019-08-16 19:31:48.531250,1.98
2019-08-16 19:31:48.546875,1.51
2019-08-16 19:31:48.562500,1.17
2019-08-16 19:31:48.578125,0.97
2019-08-16 19:31:48.593750,0.82
2019-08-16 19:31:48.609375,0.7
2019-08-16 19:31:48.625000,0.52
2019-08-16 19:31:48.640625,0.3
2019-08-16 19:31:48.656250,0.08
2019-08-16 19:31:48.671875,-0.05
2019-08-16 19:31:48.687500,-0.03
2019-08-16 19:31:48.703125,0.16
2019-08-16 19:31:48.718750,0.5
2019-08-16 19:31:48.734375,0.88
2019-08-16 19:31:48.750000,1.2
2019-08-16 19:31:48.765625,1.39
2019-08-16 19:31:48.781250,1.44
2019-08-16 19:31:48.796875,1.46
2019-08-16 19:31:48.812500,1.65
2019-08-16 19:31:48.828125,2.16
2019-08-16 19:31:48.843750,3.07
2019-08-16 19:31:48.859375,4.31
2019-08-16 19:31:48.875000,5.63
2019-08-16 19:31:48.890625,6.73
2019-08-16 19:31:48.906250,7.44
2019-08-16 19:31:48.921875,7.78
2019-08-16 19:31:48.937500,7.94
2019-08-16 19:31:48.953125,8.41
2019-08-16 19:31:48.968750,9.55
2019-08-16 19:31:48.984375,11.44
2019-08-16 19:31:49.000000,13.88
2019-08-16 19:31:49.015625,16.34
2019-08-16 19:31:49.031250,18.25
2019-08-16 19:31:49.046875,19.3
2019-08-16 19:31:49.062500,19.73
2019-08-16 19:31:49.078125,20.26
2019-08-16 19:31:49.093750,22.14
2019-08-16 19:31:49.109375,26.49
2019-08-16 19:31:49.125000,33.73
2019-08-16 19:31:49.140625,43.57
2019-08-16 19:31:49.156250,54.85
2019-08-16 19:31:49.171875,65.87
2019-08-16 19:31:49.187500,75.05
2019-08-16 19:31:49.203125,81.39
2019-08-16 19:31:49.218750,84.2
2019-08-16 19:31:49.234375,83.52
2019-08-16 19:31:49.250000,79.31
2019-08-16 19:31:49.265625,71.42
2019-08-16 19:31:49.281250,59.36
2019-08-16 19:31:49.296875,42.56
2019-08-16 19:31:49.312500,20.93
2019-08-16 19:31:49.328125,-4.97
2019-08-16 19:31:49.343750,-33.72
2019-08-16 19:31:49.359375,-63.93
2019-08-16 19:31:49.375000,-93.82
2019-08-16 19:31:49.390625,-120.92
2019-08-16 19:31:49.406250,-141.63
2019-08-16 19:31:49.421875,-151.82
2019-08-16 19:31:49.437500,-148.14
2019-08-16 19:31:49.453125,-130.29
2019-08-16 19:31:49.468750,-100.99
2019-08-16 19:31:49.484375,-66.62
2019-08-16 19:31:49.500000,-34.89
2019-08-16 19:31:49.515625,-11.64
2019-08-16 19:31:49.531250,0.97
2019-08-16 19:31:49.546875,4.69
2019-08-16 19:31:49.562500,3.44
2019-08-16 19:31:49.578125,0.89
2019-08-16 19:31:49.593750,-1.12
2019-08-16 19:31:49.609375,-2.4
2019-08-16 19:31:49.625000,-3.84
2019-08-16 19:31:49.640625,-5.86
2019-08-16 19:31:49.656250,-7.79
2019-08-16 19:31:49.671875,-8.41
2019-08-16 19:31:49.687500,-6.94
2019-08-16 19:31:49.703125,-3.64
2019-08-16 19:31:49.718750,0.26
2019-08-16 19:31:49.734375,3.3
2019-08-16 19:31:49.750000,4.39
2019-08-16 19:31:49.765625,3.43
2019-08-16 19:31:49.781250,1.23
2019-08-16 19:31:49.796875,-0.87
2019-08-16 19:31:49.812500,-1.71
2019-08-16 19:31:49.828125,-0.82
2019-08-16 19:31:49.843750,1.42
2019-08-16 19:31:49.859375,4.04
2019-08-16 19:31:49.875000,6.01
2019-08-16 19:31:49.890625,6.64
2019-08-16 19:31:49.906250,5.9
2019-08-16 19:31:49.921875,4.32
2019-08-16 19:31:49.937500,2.78
2019-08-16 19:31:49.953125,2.0
2019-08-16 19:31:49.968750,2.26
2019-08-16 19:31:49.984375,3.37
2019-08-16 19:31:50.000000,4.75
2019-08-16 19:31:50.015625,5.78
2019-08-16 19:31:50.031250,6.08
2019-08-16 19:31:50.046875,5.62
2019-08-16 19:31:50.062500,4.67
2019-08-16 19:31:50.078125,3.69
2019-08-16 19:31:50.093750,3.04
2019-08-16 19:31:50.109375,2.89
2019-08-16 19:31:50.125000,3.14
2019-08-16 19:31:50.140625,3.53
2019-08-16 19:31:50.156250,3.81
2019-08-16 19:31:50.171875,3.8
2019-08-16 19:31:50.187500,3.49
2019-08-16 19:31:50.203125,3.0
2019-08-16 19:31:50.218750,2.47
2019-08-16 19:31:50.234375,2.09
2019-08-16 19:31:50.250000,1.87
2019-08-16 19:31:50.265625,1.81
2019-08-16 19:31:50.281250,1.83
2019-08-16 19:31:50.296875,1.85
2019-08-16 19:31:50.312500,1.82
2019-08-16 19:31:50.328125,1.73
2019-08-16 19:31:50.343750,1.58
2019-08-16 19:31:50.359375,1.37
2019-08-16 19:31:50.375000,1.13
2019-08-16 19:31:50.390625,0.8
2019-08-16 19:31:50.406250,0.4
2019-08-16 19:31:50.421875,-0.11
2019-08-16 19:31:50.437500,-0.74
2019-08-16 19:31:50.453125,-1.5
2019-08-16 19:31:50.468750,-2.39
2019-08-16 19:31:50.484375,-3.41
2019-08-16 19:31:50.500000,-4.52
2019-08-16 19:31:50.515625,-5.74
2019-08-16 19:31:50.531250,-7.05
2019-08-16 19:31:50.546875,-8.45
2019-08-16 19:31:50.562500,-9.93
2019-08-16 19:31:50.578125,-11.51
2019-08-16 19:31:50.593750,-13.23
2019-08-16 19:31:50.609375,-15.09
2019-08-16 19:31:50.625000,-17.08
2019-08-16 19:31:50.640625,-19.22
2019-08-16 19:31:50.656250,-21.51
2019-08-16 19:31:50.671875,-23.95
2019-08-16 19:31:50.687500,-26.58
2019-08-16 19:31:50.703125,-29.35
2019-08-16 19:31:50.718750,-32.34
2019-08-16 19:31:50.734375,-35.61
2019-08-16 19:31:50.750000,-39.17
2019-08-16 19:31:50.765625,-43.01
2019-08-16 19:31:50.781250,-47.21
2019-08-16 19:31:50.796875,-51.88
2019-08-16 19:31:50.812500,-57.18
2019-08-16 19:31:50.828125,-63.29
2019-08-16 19:31:50.843750,-70.36
2019-08-16 19:31:50.859375,-78.56
2019-08-16 19:31:50.875000,-87.96
2019-08-16 19:31:50.890625,-98.31
2019-08-16 19:31:50.906250,-108.98
2019-08-16 19:31:50.921875,-119.05
2019-08-16 19:31:50.937500,-127.35
2019-08-16 19:31:50.953125,-132.5
2019-08-16 19:31:50.968750,-133.62
2019-08-16 19:31:50.984375,-129.47
2019-08-16 19:31:51.000000,-119.32
2019-08-16 19:31:51.015625,-103.29
2019-08-16 19:31:51.031250,-82.2
2019-08-16 19:31:51.046875,-57.49
2019-08-16 19:31:51.062500,-31.2
2019-08-16 19:31:51.078125,-5.53
2019-08-16 19:31:51.093750,17.51
2019-08-16 19:31:51.109375,36.33
2019-08-16 19:31:51.125000,50.08
2019-08-16 19:31:51.140625,58.67
2019-08-16 19:31:51.156250,62.39
2019-08-16 19:31:51.171875,62.16
2019-08-16 19:31:51.187500,59.29
2019-08-16 19:31:51.203125,54.74
2019-08-16 19:31:51.218750,49.23
2019-08-16 19:31:51.234375,43.25
2019-08-16 19:31:51.250000,36.98
2019-08-16 19:31:51.265625,30.48
2019-08-16 19:31:51.281250,23.86
2019-08-16 19:31:51.296875,17.37
2019-08-16 19:31:51.312500,11.62
2019-08-16 19:31:51.328125,7.91
2019-08-16 19:31:51.343750,7.46
2019-08-16 19:31:51.359375,11.63
2019-08-16 19:31:51.375000,21.8
2019-08-16 19:31:51.390625,39.01
2019-08-16 19:31:51.406250,63.6
2019-08-16 19:31:51.421875,95.3
2019-08-16 19:31:51.437500,132.92
2019-08-16 19:31:51.453125,174.47
2019-08-16 19:31:51.468750,217.42
2019-08-16 19:31:51.484375,258.0
2019-08-16 19:31:51.500000,292.19
2019-08-16 19:31:51.515625,316.32
2019-08-16 19:31:51.531250,327.58
2019-08-16 19:31:51.546875,324.38
2019-08-16 19:31:51.562500,306.69
2019-08-16 19:31:51.578125,275.66
2019-08-16 19:31:51.593750,230.9
2019-08-16 19:31:51.609375,176.12
2019-08-16 19:31:51.625000,115.12
2019-08-16 19:31:51.640625,51.4
2019-08-16 19:31:51.656250,-12.11
2019-08-16 19:31:51.671875,-72.87
2019-08-16 19:31:51.687500,-128.68
2019-08-16 19:31:51.703125,-177.27
2019-08-16 19:31:51.718750,-216.92
2019-08-16 19:31:51.734375,-246.48
2019-08-16 19:31:51.750000,-265.12
2019-08-16 19:31:51.765625,-273.58
2019-08-16 19:31:51.781250,-274.44
2019-08-16 19:31:51.796875,-269.31
2019-08-16 19:31:51.812500,-259.03
2019-08-16 19:31:51.828125,-243.34
2019-08-16 19:31:51.843750,-221.06
2019-08-16 19:31:51.859375,-190.92
2019-08-16 19:31:51.875000,-152.4
2019-08-16 19:31:51.890625,-106.02
2019-08-16 19:31:51.906250,-54.85
2019-08-16 19:31:51.921875,-3.47
2019-08-16 19:31:51.937500,43.49
2019-08-16 19:31:51.953125,82.35
2019-08-16 19:31:51.968750,111.51
2019-08-16 19:31:51.984375,131.56
2019-08-16 19:31:52.000000,144.51
2019-08-16 19:31:52.015625,152.72
2019-08-16 19:31:52.031250,158.37
2019-08-16 19:31:52.046875,162.17
2019-08-16 19:31:52.062500,163.9
2019-08-16 19:31:52.078125,162.18
2019-08-16 19:31:52.093750,154.49
2019-08-16 19:31:52.109375,138.16
2019-08-16 19:31:52.125000,111.56
2019-08-16 19:31:52.140625,75.43
2019-08-16 19:31:52.156250,33.88
2019-08-16 19:31:52.171875,-5.88
2019-08-16 19:31:52.187500,-36.32
2019-08-16 19:31:52.203125,-52.46
2019-08-16 19:31:52.218750,-54.64
2019-08-16 19:31:52.234375,-49.11
2019-08-16 19:31:52.250000,-45.37
2019-08-16 19:31:52.265625,-52.0
2019-08-16 19:31:52.281250,-73.55
2019-08-16 19:31:52.296875,-108.92
2019-08-16 19:31:52.312500,-152.08
2019-08-16 19:31:52.328125,-194.59
2019-08-16 19:31:52.343750,-227.51
2019-08-16 19:31:52.359375,-244.21
2019-08-16 19:31:52.375000,-241.84
2019-08-16 19:31:52.390625,-221.08
2019-08-16 19:31:52.406250,-185.38
2019-08-16 19:31:52.421875,-139.12
2019-08-16 19:31:52.437500,-85.56
2019-08-16 19:31:52.453125,-26.31
2019-08-16 19:31:52.468750,37.29
2019-08-16 19:31:52.484375,102.13
2019-08-16 19:31:52.500000,161.57
2019-08-16 19:31:52.515625,206.53
2019-08-16 19:31:52.531250,229.2
2019-08-16 19:31:52.546875,226.38
2019-08-16 19:31:52.562500,201.32
2019-08-16 19:31:52.578125,162.61
2019-08-16 19:31:52.593750,120.07
2019-08-16 19:31:52.609375,80.79
2019-08-16 19:31:52.625000,47.73
2019-08-16 19:31:52.640625,20.28
2019-08-16 19:31:52.656250,-3.13
2019-08-16 19:31:52.671875,-22.84
2019-08-16 19:31:52.687500,-38.27
2019-08-16 19:31:52.703125,-49.24
2019-08-16 19:31:52.718750,-56.55
2019-08-16 19:31:52.734375,-61.61
2019-08-16 19:31:52.750000,-64.96
2019-08-16 19:31:52.765625,-64.99
2019-08-16 19:31:52.781250,-58.85
2019-08-16 19:31:52.796875,-44.48
2019-08-16 19:31:52.812500,-22.12
2019-08-16 19:31:52.828125,4.8
2019-08-16 19:31:52.843750,30.96
2019-08-16 19:31:52.859375,51.12
2019-08-16 19:31:52.875000,61.29
2019-08-16 19:31:52.890625,59.72
2019-08-16 19:31:52.906250,46.67
2019-08-16 19:31:52.921875,23.99
2019-08-16 19:31:52.937500,-5.98
2019-08-16 19:31:52.953125,-38.46
2019-08-16 19:31:52.968750,-67.07
2019-08-16 19:31:52.984375,-85.25
2019-08-16 19:31:53.000000,-88.62
2019-08-16 19:31:53.015625,-76.83
2019-08-16 19:31:53.031250,-53.41
2019-08-16 19:31:53.046875,-23.88
2019-08-16 19:31:53.062500,6.22
2019-08-16 19:31:53.078125,32.72
2019-08-16 19:31:53.093750,53.46
2019-08-16 19:31:53.109375,67.43
2019-08-16 19:31:53.125000,74.74
2019-08-16 19:31:53.140625,76.45
2019-08-16 19:31:53.156250,73.96
2019-08-16 19:31:53.171875,68.85
2019-08-16 19:31:53.187500,62.65
2019-08-16 19:31:53.203125,56.38
2019-08-16 19:31:53.218750,50.48
2019-08-16 19:31:53.234375,45.13
2019-08-16 19:31:53.250000,40.04
2019-08-16 19:31:53.265625,34.92
2019-08-16 19:31:53.281250,29.66
2019-08-16 19:31:53.296875,24.32
2019-08-16 19:31:53.312500,19.21
2019-08-16 19:31:53.328125,14.76
2019-08-16 19:31:53.343750,11.21
2019-08-16 19:31:53.359375,8.5
2019-08-16 19:31:53.375000,6.43
2019-08-16 19:31:53.390625,4.6
2019-08-16 19:31:53.406250,2.67
2019-08-16 19:31:53.421875,0.51
2019-08-16 19:31:53.437500,-1.83
2019-08-16 19:31:53.453125,-4.09
2019-08-16 19:31:53.468750,-5.93
2019-08-16 19:31:53.484375,-7.2
2019-08-16 19:31:53.500000,-7.98
2019-08-16 19:31:53.515625,-8.47
2019-08-16 19:31:53.531250,-8.97
2019-08-16 19:31:53.546875,-9.65
2019-08-16 19:31:53.562500,-10.47
2019-08-16 19:31:53.578125,-11.26
2019-08-16 19:31:53.593750,-11.78
2019-08-16 19:31:53.609375,-11.81
2019-08-16 19:31:53.625000,-11.39
2019-08-16 19:31:53.640625,-10.79
2019-08-16 19:31:53.656250,-10.32
2019-08-16 19:31:53.671875,-10.33
2019-08-16 19:31:53.687500,-10.81
2019-08-16 19:31:53.703125,-11.5
2019-08-16 19:31:53.718750,-11.94
2019-08-16 19:31:53.734375,-11.69
2019-08-16 19:31:53.750000,-10.49
2019-08-16 19:31:53.765625,-8.53
2019-08-16 19:31:53.781250,-6.48
2019-08-16 19:31:53.796875,-4.98
2019-08-16 19:31:53.812500,-4.55
2019-08-16 19:31:53.828125,-5.16
2019-08-16 19:31:53.843750,-6.18
2019-08-16 19:31:53.859375,-6.68
2019-08-16 19:31:53.875000,-5.74
2019-08-16 19:31:53.890625,-2.53
2019-08-16 19:31:53.906250,3.26
2019-08-16 19:31:53.921875,11.29
2019-08-16 19:31:53.937500,21.13
2019-08-16 19:31:53.953125,31.53
2019-08-16 19:31:53.968750,40.71
2019-08-16 19:31:53.984375,46.9
2019-08-16 19:31:54.000000,48.57
2019-08-16 19:31:54.015625,45.89
2019-08-16 19:31:54.031250,40.99
2019-08-16 19:31:54.046875,37.25
2019-08-16 19:31:54.062500,37.48
2019-08-16 19:31:54.078125,42.14
2019-08-16 19:31:54.093750,48.54
2019-08-16 19:31:54.109375,52.14
2019-08-16 19:31:54.125000,48.84
2019-08-16 19:31:54.140625,36.73
2019-08-16 19:31:54.156250,16.56
2019-08-16 19:31:54.171875,-9.46
2019-08-16 19:31:54.187500,-39.01
2019-08-16 19:31:54.203125,-70.21
2019-08-16 19:31:54.218750,-100.99
2019-08-16 19:31:54.234375,-127.83
2019-08-16 19:31:54.250000,-145.56
2019-08-16 19:31:54.265625,-148.94
2019-08-16 19:31:54.281250,-135.62
2019-08-16 19:31:54.296875,-107.41
2019-08-16 19:31:54.312500,-70.16
2019-08-16 19:31:54.328125,-31.0
2019-08-16 19:31:54.343750,4.29
2019-08-16 19:31:54.359375,32.85
2019-08-16 19:31:54.375000,53.87
2019-08-16 19:31:54.390625,67.67
2019-08-16 19:31:54.406250,74.87
2019-08-16 19:31:54.421875,75.8
2019-08-16 19:31:54.437500,70.91
2019-08-16 19:31:54.453125,60.39
2019-08-16 19:31:54.468750,44.05
2019-08-16 19:31:54.484375,21.08
2019-08-16 19:31:54.500000,-9.2
2019-08-16 19:31:54.515625,-45.77
2019-08-16 19:31:54.531250,-84.42
2019-08-16 19:31:54.546875,-117.47
2019-08-16 19:31:54.562500,-135.77
2019-08-16 19:31:54.578125,-131.65
2019-08-16 19:31:54.593750,-102.34
2019-08-16 19:31:54.609375,-51.24
2019-08-16 19:31:54.625000,12.23
2019-08-16 19:31:54.640625,74.8
2019-08-16 19:31:54.656250,123.02
2019-08-16 19:31:54.671875,145.96
2019-08-16 19:31:54.687500,138.08
2019-08-16 19:31:54.703125,100.7
2019-08-16 19:31:54.718750,42.4
2019-08-16 19:31:54.734375,-22.54
2019-08-16 19:31:54.750000,-77.0
2019-08-16 19:31:54.765625,-106.56
2019-08-16 19:31:54.781250,-104.46
2019-08-16 19:31:54.796875,-73.71
2019-08-16 19:31:54.812500,-25.69
2019-08-16 19:31:54.828125,24.57
2019-08-16 19:31:54.843750,64.22
2019-08-16 19:31:54.859375,87.1
2019-08-16 19:31:54.875000,92.4
2019-08-16 19:31:54.890625,86.35
2019-08-16 19:31:54.906250,76.79
2019-08-16 19:31:54.921875,67.96
2019-08-16 19:31:54.937500,59.2
2019-08-16 19:31:54.953125,47.76
2019-08-16 19:31:54.968750,32.23
2019-08-16 19:31:54.984375,14.42
2019-08-16 19:31:55.000000,-2.05
2019-08-16 19:31:55.015625,-14.77
2019-08-16 19:31:55.031250,-23.87
2019-08-16 19:31:55.046875,-32.63
2019-08-16 19:31:55.062500,-45.08
2019-08-16 19:31:55.078125,-62.86
2019-08-16 19:31:55.093750,-83.79
2019-08-16 19:31:55.109375,-103.76
2019-08-16 19:31:55.125000,-116.31
2019-08-16 19:31:55.140625,-116.4
2019-08-16 19:31:55.156250,-102.31
2019-08-16 19:31:55.171875,-76.4
2019-08-16 19:31:55.187500,-44.94
2019-08-16 19:31:55.203125,-16.82
2019-08-16 19:31:55.218750,-0.36
2019-08-16 19:31:55.234375,-0.34
2019-08-16 19:31:55.250000,-16.07
2019-08-16 19:31:55.265625,-41.35
2019-08-16 19:31:55.281250,-66.12
2019-08-16 19:31:55.296875,-80.73
2019-08-16 19:31:55.312500,-79.62
2019-08-16 19:31:55.328125,-63.53
2019-08-16 19:31:55.343750,-38.31
2019-08-16 19:31:55.359375,-11.61
2019-08-16 19:31:55.375000,10.71
2019-08-16 19:31:55.390625,26.14
2019-08-16 19:31:55.406250,35.12
2019-08-16 19:31:55.421875,39.43
2019-08-16 19:31:55.437500,40.46
2019-08-16 19:31:55.453125,39.18
2019-08-16 19:31:55.468750,36.39
2019-08-16 19:31:55.484375,33.37
2019-08-16 19:31:55.500000,31.72
2019-08-16 19:31:55.515625,32.95
2019-08-16 19:31:55.531250,38.16
2019-08-16 19:31:55.546875,47.19
2019-08-16 19:31:55.562500,58.84
2019-08-16 19:31:55.578125,70.16
2019-08-16 19:31:55.593750,77.82
2019-08-16 19:31:55.609375,79.85
2019-08-16 19:31:55.625000,76.67
2019-08-16 19:31:55.640625,71.54
2019-08-16 19:31:55.656250,68.85
2019-08-16 19:31:55.671875,71.86
2019-08-16 19:31:55.687500,79.81
2019-08-16 19:31:55.703125,89.34
2019-08-16 19:31:55.718750,94.64
2019-08-16 19:31:55.734375,90.63
2019-08-16 19:31:55.750000,75.8
2019-08-16 19:31:55.765625,52.42
2019-08-16 19:31:55.781250,25.32
2019-08-16 19:31:55.796875,-1.13
2019-08-16 19:31:55.812500,-24.59
2019-08-16 19:31:55.828125,-45.43
2019-08-16 19:31:55.843750,-64.63
2019-08-16 19:31:55.859375,-82.93
2019-08-16 19:31:55.875000,-99.49
2019-08-16 19:31:55.890625,-112.1
2019-08-16 19:31:55.906250,-119.18
2019-08-16 19:31:55.921875,-118.78
2019-08-16 19:31:55.937500,-110.66
2019-08-16 19:31:55.953125,-96.62
2019-08-16 19:31:55.968750,-80.56
2019-08-16 19:31:55.984375,-67.0
2019-08-16 19:31:56.000000,-60.07
2019-08-16 19:31:56.015625,-61.39
2019-08-16 19:31:56.031250,-68.43
2019-08-16 19:31:56.046875,-76.25
2019-08-16 19:31:56.062500,-78.56
2019-08-16 19:31:56.078125,-71.28
2019-08-16 19:31:56.093750,-54.37
2019-08-16 19:31:56.109375,-31.72
2019-08-16 19:31:56.125000,-8.74
2019-08-16 19:31:56.140625,10.21
2019-08-16 19:31:56.156250,23.59
2019-08-16 19:31:56.171875,32.6
2019-08-16 19:31:56.187500,39.26
2019-08-16 19:31:56.203125,44.89
2019-08-16 19:31:56.218750,49.13
2019-08-16 19:31:56.234375,50.69
2019-08-16 19:31:56.250000,48.68
2019-08-16 19:31:56.265625,43.58
2019-08-16 19:31:56.281250,37.05
2019-08-16 19:31:56.296875,31.08
2019-08-16 19:31:56.312500,27.36
2019-08-16 19:31:56.328125,26.16
2019-08-16 19:31:56.343750,26.67
2019-08-16 19:31:56.359375,27.36
2019-08-16 19:31:56.375000,26.91
2019-08-16 19:31:56.390625,24.82
2019-08-16 19:31:56.406250,21.47
2019-08-16 19:31:56.421875,17.76
2019-08-16 19:31:56.437500,14.61
2019-08-16 19:31:56.453125,12.47
2019-08-16 19:31:56.468750,11.12
2019-08-16 19:31:56.484375,10.04
2019-08-16 19:31:56.500000,8.75
2019-08-16 19:31:56.515625,7.11
2019-08-16 19:31:56.531250,5.44
2019-08-16 19:31:56.546875,4.18
2019-08-16 19:31:56.562500,3.58
2019-08-16 19:31:56.578125,3.41
2019-08-16 19:31:56.593750,3.08
2019-08-16 19:31:56.609375,2.0
2019-08-16 19:31:56.625000,-0.16
2019-08-16 19:31:56.640625,-3.01
2019-08-16 19:31:56.656250,-5.61
2019-08-16 19:31:56.671875,-6.87
2019-08-16 19:31:56.687500,-6.06
2019-08-16 19:31:56.703125,-3.0
2019-08-16 19:31:56.718750,1.94
2019-08-16 19:31:56.734375,8.09
2019-08-16 19:31:56.750000,14.67
2019-08-16 19:31:56.765625,20.88
2019-08-16 19:31:56.781250,25.82
2019-08-16 19:31:56.796875,28.79
2019-08-16 19:31:56.812500,30.34
2019-08-16 19:31:56.828125,31.99
2019-08-16 19:31:56.843750,36.56
2019-08-16 19:31:56.859375,46.71
2019-08-16 19:31:56.875000,63.09
2019-08-16 19:31:56.890625,83.12
2019-08-16 19:31:56.906250,101.42
2019-08-16 19:31:56.921875,111.84
2019-08-16 19:31:56.937500,109.46
2019-08-16 19:31:56.953125,94.49
2019-08-16 19:31:56.968750,70.63
2019-08-16 19:31:56.984375,43.55
2019-08-16 19:31:57.000000,18.3
2019-08-16 19:31:57.015625,-2.37
2019-08-16 19:31:57.031250,-18.18
2019-08-16 19:31:57.046875,-30.12
2019-08-16 19:31:57.062500,-39.06
2019-08-16 19:31:57.078125,-44.95
2019-08-16 19:31:57.093750,-47.18
2019-08-16 19:31:57.109375,-45.71
2019-08-16 19:31:57.125000,-41.45
2019-08-16 19:31:57.140625,-36.09
2019-08-16 19:31:57.156250,-31.4
2019-08-16 19:31:57.171875,-28.71
2019-08-16 19:31:57.187500,-28.22
2019-08-16 19:31:57.203125,-29.18
2019-08-16 19:31:57.218750,-30.19
2019-08-16 19:31:57.234375,-29.98
2019-08-16 19:31:57.250000,-28.09
2019-08-16 19:31:57.265625,-24.83
2019-08-16 19:31:57.281250,-21.11
2019-08-16 19:31:57.296875,-17.97
2019-08-16 19:31:57.312500,-16.13
2019-08-16 19:31:57.328125,-15.65
2019-08-16 19:31:57.343750,-16.04
2019-08-16 19:31:57.359375,-16.5
2019-08-16 19:31:57.375000,-16.3
2019-08-16 19:31:57.390625,-15.15
2019-08-16 19:31:57.406250,-13.15
2019-08-16 19:31:57.421875,-10.76
2019-08-16 19:31:57.437500,-8.5
2019-08-16 19:31:57.453125,-6.75
2019-08-16 19:31:57.468750,-5.66
2019-08-16 19:31:57.484375,-5.11
2019-08-16 19:31:57.500000,-4.84
2019-08-16 19:31:57.515625,-4.6
2019-08-16 19:31:57.531250,-4.19
2019-08-16 19:31:57.546875,-3.44
2019-08-16 19:31:57.562500,-2.26
2019-08-16 19:31:57.578125,-0.68
2019-08-16 19:31:57.593750,1.18
2019-08-16 19:31:57.609375,3.03
2019-08-16 19:31:57.625000,4.5
2019-08-16 19:31:57.640625,5.26
2019-08-16 19:31:57.656250,5.11
2019-08-16 19:31:57.671875,4.23
2019-08-16 19:31:57.687500,3.18
2019-08-16 19:31:57.703125,2.66
2019-08-16 19:31:57.718750,3.21
2019-08-16 19:31:57.734375,4.96
2019-08-16 19:31:57.750000,7.41
2019-08-16 19:31:57.765625,9.67
2019-08-16 19:31:57.781250,10.75
2019-08-16 19:31:57.796875,9.96
2019-08-16 19:31:57.812500,7.54
2019-08-16 19:31:57.828125,4.44
2019-08-16 19:31:57.843750,2.03
2019-08-16 19:31:57.859375,1.4
2019-08-16 19:31:57.875000,3.01
2019-08-16 19:31:57.890625,6.12
2019-08-16 19:31:57.906250,9.26
2019-08-16 19:31:57.921875,10.97
2019-08-16 19:31:57.937500,10.04
2019-08-16 19:31:57.953125,6.44
2019-08-16 19:31:57.968750,0.92
2019-08-16 19:31:57.984375,-5.49
2019-08-16 19:31:58.000000,-11.84
2019-08-16 19:31:58.015625,-17.26
2019-08-16 19:31:58.031250,-21.25
2019-08-16 19:31:58.046875,-23.74
2019-08-16 19:31:58.062500,-25.63
2019-08-16 19:31:58.078125,-29.44
2019-08-16 19:31:58.093750,-38.73
2019-08-16 19:31:58.109375,-56.42
2019-08-16 19:31:58.125000,-83.08
2019-08-16 19:31:58.140625,-115.36
2019-08-16 19:31:58.156250,-145.98
2019-08-16 19:31:58.171875,-166.14
2019-08-16 19:31:58.187500,-168.94
2019-08-16 19:31:58.203125,-151.03
2019-08-16 19:31:58.218750,-116.41
2019-08-16 19:31:58.234375,-72.54
2019-08-16 19:31:58.250000,-27.13
2019-08-16 19:31:58.265625,14.65
2019-08-16 19:31:58.281250,51.06
2019-08-16 19:31:58.296875,82.67
2019-08-16 19:31:58.312500,110.49
2019-08-16 19:31:58.328125,134.28
2019-08-16 19:31:58.343750,152.43
2019-08-16 19:31:58.359375,162.73
2019-08-16 19:31:58.375000,164.51
2019-08-16 19:31:58.390625,158.26
2019-08-16 19:31:58.406250,145.67
2019-08-16 19:31:58.421875,129.45
2019-08-16 19:31:58.437500,111.87
2019-08-16 19:31:58.453125,93.96
2019-08-16 19:31:58.468750,75.43
2019-08-16 19:31:58.484375,55.16
2019-08-16 19:31:58.500000,31.34
2019-08-16 19:31:58.515625,3.2
2019-08-16 19:31:58.531250,-28.91
2019-08-16 19:31:58.546875,-63.17
2019-08-16 19:31:58.562500,-96.27
2019-08-16 19:31:58.578125,-124.6
2019-08-16 19:31:58.593750,-145.41
2019-08-16 19:31:58.609375,-157.07
2019-08-16 19:31:58.625000,-158.76
2019-08-16 19:31:58.640625,-150.59
2019-08-16 19:31:58.656250,-133.33
2019-08-16 19:31:58.671875,-109.31
2019-08-16 19:31:58.687500,-82.92
2019-08-16 19:31:58.703125,-59.77
2019-08-16 19:31:58.718750,-44.99
2019-08-16 19:31:58.734375,-40.88
2019-08-16 19:31:58.750000,-45.23
2019-08-16 19:31:58.765625,-51.56
2019-08-16 19:31:58.781250,-52.85
2019-08-16 19:31:58.796875,-44.31
2019-08-16 19:31:58.812500,-25.4
2019-08-16 19:31:58.828125,0.37
2019-08-16 19:31:58.843750,28.28
2019-08-16 19:31:58.859375,54.81
2019-08-16 19:31:58.875000,78.56
2019-08-16 19:31:58.890625,99.88
2019-08-16 19:31:58.906250,118.54
2019-08-16 19:31:58.921875,132.7
2019-08-16 19:31:58.937500,139.65
2019-08-16 19:31:58.953125,137.92
2019-08-16 19:31:58.968750,126.53
2019-08-16 19:31:58.984375,107.52
2019-08-16 19:31:59.000000,84.59
2019-08-16 19:31:59.015625,61.67
2019-08-16 19:31:59.031250,41.59
2019-08-16 19:31:59.046875,24.73
2019-08-16 19:31:59.062500,9.07
2019-08-16 19:31:59.078125,-8.76
2019-08-16 19:31:59.093750,-31.4
2019-08-16 19:31:59.109375,-58.96
2019-08-16 19:31:59.125000,-86.98
2019-08-16 19:31:59.140625,-107.99
2019-08-16 19:31:59.156250,-114.92
2019-08-16 19:31:59.171875,-104.2
2019-08-16 19:31:59.187500,-77.97
2019-08-16 19:31:59.203125,-43.02
2019-08-16 19:31:59.218750,-8.61
2019-08-16 19:31:59.234375,16.74
2019-08-16 19:31:59.250000,27.22
2019-08-16 19:31:59.265625,21.24
2019-08-16 19:31:59.281250,0.66
2019-08-16 19:31:59.296875,-29.92
2019-08-16 19:31:59.312500,-62.89
2019-08-16 19:31:59.328125,-88.37
2019-08-16 19:31:59.343750,-95.75
2019-08-16 19:31:59.359375,-77.89
2019-08-16 19:31:59.375000,-34.91
2019-08-16 19:31:59.390625,24.68
2019-08-16 19:31:59.406250,86.93
2019-08-16 19:31:59.421875,137.08
2019-08-16 19:31:59.437500,164.6
2019-08-16 19:31:59.453125,166.36
2019-08-16 19:31:59.468750,142.97
2019-08-16 19:31:59.484375,102.28
2019-08-16 19:31:59.500000,53.15
2019-08-16 19:31:59.515625,3.32
2019-08-16 19:31:59.531250,-43.52
2019-08-16 19:31:59.546875,-82.85
2019-08-16 19:31:59.562500,-109.07
2019-08-16 19:31:59.578125,-117.32
2019-08-16 19:31:59.593750,-105.94
2019-08-16 19:31:59.609375,-78.57
2019-08-16 19:31:59.625000,-42.81
2019-08-16 19:31:59.640625,-8.0
2019-08-16 19:31:59.656250,18.52
2019-08-16 19:31:59.671875,33.83
2019-08-16 19:31:59.687500,38.77
2019-08-16 19:31:59.703125,37.21
2019-08-16 19:31:59.718750,33.02
2019-08-16 19:31:59.734375,27.99
2019-08-16 19:31:59.750000,21.79
2019-08-16 19:31:59.765625,13.84
2019-08-16 19:31:59.781250,4.54
2019-08-16 19:31:59.796875,-3.86
2019-08-16 19:31:59.812500,-8.44
2019-08-16 19:31:59.828125,-6.9
2019-08-16 19:31:59.843750,1.54
2019-08-16 19:31:59.859375,15.73
2019-08-16 19:31:59.875000,33.21
2019-08-16 19:31:59.890625,51.46
2019-08-16 19:31:59.906250,68.83
2019-08-16 19:31:59.921875,83.42
2019-08-16 19:31:59.937500,93.45
2019-08-16 19:31:59.953125,98.33
2019-08-16 19:31:59.968750,96.79
2019-08-16 19:31:59.984375,89.01
2019-08-16 19:32:00.000000,77.33
2019-08-16 19:32:00.015625,65.63
2019-08-16 19:32:00.031250,58.0
2019-08-16 19:32:00.046875,57.11
2019-08-16 19:32:00.062500,61.34
2019-08-16 19:32:00.078125,67.2
2019-08-16 19:32:00.093750,69.17
2019-08-16 19:32:00.109375,62.61
2019-08-16 19:32:00.125000,46.1
2019-08-16 19:32:00.140625,21.67
2019-08-16 19:32:00.156250,-6.51
2019-08-16 19:32:00.171875,-34.15
2019-08-16 19:32:00.187500,-58.12
2019-08-16 19:32:00.203125,-76.98
2019-08-16 19:32:00.218750,-90.15
2019-08-16 19:32:00.234375,-98.03
2019-08-16 19:32:00.250000,-101.42
2019-08-16 19:32:00.265625,-101.72
2019-08-16 19:32:00.281250,-101.06
2019-08-16 19:32:00.296875,-101.52
2019-08-16 19:32:00.312500,-104.28
2019-08-16 19:32:00.328125,-108.52
2019-08-16 19:32:00.343750,-112.47
2019-08-16 19:32:00.359375,-112.09
2019-08-16 19:32:00.375000,-104.23
2019-08-16 19:32:00.390625,-87.56
2019-08-16 19:32:00.406250,-62.5
2019-08-16 19:32:00.421875,-31.06
2019-08-16 19:32:00.437500,3.58
2019-08-16 19:32:00.453125,36.79
2019-08-16 19:32:00.468750,62.63
2019-08-16 19:32:00.484375,75.05
2019-08-16 19:32:00.500000,70.74
2019-08-16 19:32:00.515625,51.44
2019-08-16 19:32:00.531250,24.55
2019-08-16 19:32:00.546875,0.51
2019-08-16 19:32:00.562500,-12.49
2019-08-16 19:32:00.578125,-12.65
2019-08-16 19:32:00.593750,-5.8
2019-08-16 19:32:00.609375,-1.8
2019-08-16 19:32:00.625000,-8.62
2019-08-16 19:32:00.640625,-27.61
2019-08-16 19:32:00.656250,-52.65
2019-08-16 19:32:00.671875,-73.33
2019-08-16 19:32:00.687500,-80.71
2019-08-16 19:32:00.703125,-72.3
2019-08-16 19:32:00.718750,-52.13
2019-08-16 19:32:00.734375,-27.41
2019-08-16 19:32:00.750000,-3.92
2019-08-16 19:32:00.765625,16.6
2019-08-16 19:32:00.781250,35.21
2019-08-16 19:32:00.796875,53.57
2019-08-16 19:32:00.812500,71.54
2019-08-16 19:32:00.828125,86.96
2019-08-16 19:32:00.843750,96.9
2019-08-16 19:32:00.859375,100.11
2019-08-16 19:32:00.875000,98.06
2019-08-16 19:32:00.890625,94.24
2019-08-16 19:32:00.906250,92.88
2019-08-16 19:32:00.921875,96.28
2019-08-16 19:32:00.937500,104.38
2019-08-16 19:32:00.953125,114.74
2019-08-16 19:32:00.968750,124.62
2019-08-16 19:32:00.984375,129.96
2019-08-16 19:32:01.000000,128.24
2019-08-16 19:32:01.015625,118.25
2019-08-16 19:32:01.031250,99.73
2019-08-16 19:32:01.046875,73.3
2019-08-16 19:32:01.062500,40.52
2019-08-16 19:32:01.078125,5.07
2019-08-16 19:32:01.093750,-28.33
2019-08-16 19:32:01.109375,-55.12
2019-08-16 19:32:01.125000,-74.92
2019-08-16 19:32:01.140625,-90.82
2019-08-16 19:32:01.156250,-107.12
2019-08-16 19:32:01.171875,-126.9
2019-08-16 19:32:01.187500,-147.66
2019-08-16 19:32:01.203125,-164.31
2019-08-16 19:32:01.218750,-171.7
2019-08-16 19:32:01.234375,-168.24
2019-08-16 19:32:01.250000,-157.02
2019-08-16 19:32:01.265625,-144.42
2019-08-16 19:32:01.281250,-135.14
2019-08-16 19:32:01.296875,-129.11
2019-08-16 19:32:01.312500,-121.33
2019-08-16 19:32:01.328125,-103.35
2019-08-16 19:32:01.343750,-72.26
2019-08-16 19:32:01.359375,-30.83
2019-08-16 19:32:01.375000,12.54
2019-08-16 19:32:01.390625,49.98
2019-08-16 19:32:01.406250,75.38
2019-08-16 19:32:01.421875,87.29
2019-08-16 19:32:01.437500,89.42
2019-08-16 19:32:01.453125,88.76
2019-08-16 19:32:01.468750,92.15
2019-08-16 19:32:01.484375,102.31
2019-08-16 19:32:01.500000,116.74
2019-08-16 19:32:01.515625,127.48
2019-08-16 19:32:01.531250,126.97
2019-08-16 19:32:01.546875,111.07
2019-08-16 19:32:01.562500,82.52
2019-08-16 19:32:01.578125,47.39
2019-08-16 19:32:01.593750,13.26
2019-08-16 19:32:01.609375,-14.61
2019-08-16 19:32:01.625000,-35.88
2019-08-16 19:32:01.640625,-53.5
2019-08-16 19:32:01.656250,-70.44
2019-08-16 19:32:01.671875,-86.6
2019-08-16 19:32:01.687500,-98.84
2019-08-16 19:32:01.703125,-103.23
2019-08-16 19:32:01.718750,-97.78
2019-08-16 19:32:01.734375,-83.12
2019-08-16 19:32:01.750000,-61.34
2019-08-16 19:32:01.765625,-34.05
2019-08-16 19:32:01.781250,-0.58
2019-08-16 19:32:01.796875,41.38
2019-08-16 19:32:01.812500,92.86
2019-08-16 19:32:01.828125,149.69
2019-08-16 19:32:01.843750,201.64
2019-08-16 19:32:01.859375,235.87
2019-08-16 19:32:01.875000,239.7
2019-08-16 19:32:01.890625,208.26
2019-08-16 19:32:01.906250,147.0
2019-08-16 19:32:01.921875,70.24
2019-08-16 19:32:01.937500,-3.91
2019-08-16 19:32:01.953125,-59.15
2019-08-16 19:32:01.968750,-84.41
2019-08-16 19:32:01.984375,-80.38
2019-08-16 19:32:02.000000,-58.69
2019-08-16 19:32:02.015625,-34.56
2019-08-16 19:32:02.031250,-18.48
2019-08-16 19:32:02.046875,-13.0
2019-08-16 19:32:02.062500,-14.9
2019-08-16 19:32:02.078125,-19.49
2019-08-16 19:32:02.093750,-23.9
2019-08-16 19:32:02.109375,-28.26
2019-08-16 19:32:02.125000,-34.69
2019-08-16 19:32:02.140625,-44.35
2019-08-16 19:32:02.156250,-55.45
2019-08-16 19:32:02.171875,-63.95
2019-08-16 19:32:02.187500,-66.07
2019-08-16 19:32:02.203125,-60.73
2019-08-16 19:32:02.218750,-50.07
2019-08-16 19:32:02.234375,-38.3
2019-08-16 19:32:02.250000,-29.84
2019-08-16 19:32:02.265625,-27.66
2019-08-16 19:32:02.281250,-31.74
2019-08-16 19:32:02.296875,-39.11
2019-08-16 19:32:02.312500,-45.29
2019-08-16 19:32:02.328125,-46.48
2019-08-16 19:32:02.343750,-41.52
2019-08-16 19:32:02.359375,-31.98
2019-08-16 19:32:02.375000,-21.25
2019-08-16 19:32:02.390625,-13.05
2019-08-16 19:32:02.406250,-9.98
2019-08-16 19:32:02.421875,-12.31
2019-08-16 19:32:02.437500,-18.01
2019-08-16 19:32:02.453125,-23.9
2019-08-16 19:32:02.468750,-27.17
2019-08-16 19:32:02.484375,-27.04
2019-08-16 19:32:02.500000,-24.88
2019-08-16 19:32:02.515625,-23.39
2019-08-16 19:32:02.531250,-25.38
2019-08-16 19:32:02.546875,-32.43
2019-08-16 19:32:02.562500,-43.93
2019-08-16 19:32:02.578125,-57.3
2019-08-16 19:32:02.593750,-69.2
2019-08-16 19:32:02.609375,-76.92
2019-08-16 19:32:02.625000,-80.19
2019-08-16 19:32:02.640625,-81.25
2019-08-16 19:32:02.656250,-83.67
2019-08-16 19:32:02.671875,-90.76
2019-08-16 19:32:02.687500,-103.94
2019-08-16 19:32:02.703125,-121.62
2019-08-16 19:32:02.718750,-139.51
2019-08-16 19:32:02.734375,-153.3
2019-08-16 19:32:02.750000,-157.94
2019-08-16 19:32:02.765625,-150.47
2019-08-16 19:32:02.781250,-130.31
2019-08-16 19:32:02.796875,-98.98
2019-08-16 19:32:02.812500,-59.56
2019-08-16 19:32:02.828125,-16.4
2019-08-16 19:32:02.843750,25.5
2019-08-16 19:32:02.859375,61.35
2019-08-16 19:32:02.875000,87.1
2019-08-16 19:32:02.890625,101.89
2019-08-16 19:32:02.906250,107.88
2019-08-16 19:32:02.921875,108.95
2019-08-16 19:32:02.937500,108.86
2019-08-16 19:32:02.953125,109.57
2019-08-16 19:32:02.968750,110.95
2019-08-16 19:32:02.984375,111.51
2019-08-16 19:32:03.000000,109.74
2019-08-16 19:32:03.015625,105.52
2019-08-16 19:32:03.031250,101.63
2019-08-16 19:32:03.046875,102.88
2019-08-16 19:32:03.062500,114.45
2019-08-16 19:32:03.078125,138.76
2019-08-16 19:32:03.093750,172.95
2019-08-16 19:32:03.109375,208.26
2019-08-16 19:32:03.125000,232.84
2019-08-16 19:32:03.140625,238.43
2019-08-16 19:32:03.156250,222.87
2019-08-16 19:32:03.171875,193.63
2019-08-16 19:32:03.187500,163.96
2019-08-16 19:32:03.203125,145.94
2019-08-16 19:32:03.218750,143.95
2019-08-16 19:32:03.234375,152.56
2019-08-16 19:32:03.250000,160.06
2019-08-16 19:32:03.265625,154.63
2019-08-16 19:32:03.281250,132.27
2019-08-16 19:32:03.296875,97.08
2019-08-16 19:32:03.312500,58.34
2019-08-16 19:32:03.328125,24.5
2019-08-16 19:32:03.343750,-1.01
2019-08-16 19:32:03.359375,-20.08
2019-08-16 19:32:03.375000,-36.8
2019-08-16 19:32:03.390625,-54.09
2019-08-16 19:32:03.406250,-71.3
2019-08-16 19:32:03.421875,-84.89
2019-08-16 19:32:03.437500,-91.15
2019-08-16 19:32:03.453125,-88.66
2019-08-16 19:32:03.468750,-78.92
2019-08-16 19:32:03.484375,-65.97
2019-08-16 19:32:03.500000,-54.73
2019-08-16 19:32:03.515625,-48.57
2019-08-16 19:32:03.531250,-48.19
2019-08-16 19:32:03.546875,-51.64
2019-08-16 19:32:03.562500,-55.24
2019-08-16 19:32:03.578125,-55.93
2019-08-16 19:32:03.593750,-52.29
2019-08-16 19:32:03.609375,-45.05
2019-08-16 19:32:03.625000,-36.55
2019-08-16 19:32:03.640625,-29.56
2019-08-16 19:32:03.656250,-25.86
2019-08-16 19:32:03.671875,-25.68
2019-08-16 19:32:03.687500,-27.74
2019-08-16 19:32:03.703125,-30.0
2019-08-16 19:32:03.718750,-30.85
2019-08-16 19:32:03.734375,-29.68
2019-08-16 19:32:03.750000,-26.98
2019-08-16 19:32:03.765625,-24.06
2019-08-16 19:32:03.781250,-22.35
2019-08-16 19:32:03.796875,-22.68
2019-08-16 19:32:03.812500,-25.12
2019-08-16 19:32:03.828125,-28.98
2019-08-16 19:32:03.843750,-33.29
2019-08-16 19:32:03.859375,-37.35
2019-08-16 19:32:03.875000,-40.93
2019-08-16 19:32:03.890625,-44.34
2019-08-16 19:32:03.906250,-48.14
2019-08-16 19:32:03.921875,-52.94
2019-08-16 19:32:03.937500,-59.09
2019-08-16 19:32:03.953125,-66.56
2019-08-16 19:32:03.968750,-75.05
2019-08-16 19:32:03.984375,-84.22
2019-08-16 19:32:04.000000,-93.88
2019-08-16 19:32:04.015625,-104.19
2019-08-16 19:32:04.031250,-115.52
2019-08-16 19:32:04.046875,-128.25
2019-08-16 19:32:04.062500,-142.72
2019-08-16 19:32:04.078125,-158.89
2019-08-16 19:32:04.093750,-176.24
2019-08-16 19:32:04.109375,-193.69
2019-08-16 19:32:04.125000,-209.82
2019-08-16 19:32:04.140625,-223.03
2019-08-16 19:32:04.156250,-231.84
2019-08-16 19:32:04.171875,-235.37
2019-08-16 19:32:04.187500,-232.73
2019-08-16 19:32:04.203125,-223.23
2019-08-16 19:32:04.218750,-206.4
2019-08-16 19:32:04.234375,-182.06
2019-08-16 19:32:04.250000,-150.35
2019-08-16 19:32:04.265625,-112.13
2019-08-16 19:32:04.281250,-69.03
2019-08-16 19:32:04.296875,-23.53
2019-08-16 19:32:04.312500,21.3
2019-08-16 19:32:04.328125,62.4
2019-08-16 19:32:04.343750,97.33
2019-08-16 19:32:04.359375,124.91
2019-08-16 19:32:04.375000,145.48
2019-08-16 19:32:04.390625,160.62
2019-08-16 19:32:04.406250,172.43
2019-08-16 19:32:04.421875,182.68
2019-08-16 19:32:04.437500,192.06
2019-08-16 19:32:04.453125,200.07
2019-08-16 19:32:04.468750,205.58
2019-08-16 19:32:04.484375,207.54
2019-08-16 19:32:04.500000,205.72
2019-08-16 19:32:04.515625,201.19
2019-08-16 19:32:04.531250,195.94
2019-08-16 19:32:04.546875,192.2
2019-08-16 19:32:04.562500,191.81
2019-08-16 19:32:04.578125,195.55
2019-08-16 19:32:04.593750,202.88
2019-08-16 19:32:04.609375,211.86
2019-08-16 19:32:04.625000,219.14
2019-08-16 19:32:04.640625,220.62
2019-08-16 19:32:04.656250,212.69
2019-08-16 19:32:04.671875,193.72
2019-08-16 19:32:04.687500,165.2
2019-08-16 19:32:04.703125,131.65
2019-08-16 19:32:04.718750,99.03
2019-08-16 19:32:04.734375,72.31
2019-08-16 19:32:04.750000,53.44
2019-08-16 19:32:04.765625,40.54
2019-08-16 19:32:04.781250,29.24
2019-08-16 19:32:04.796875,15.1
2019-08-16 19:32:04.812500,-3.88
2019-08-16 19:32:04.828125,-26.23
2019-08-16 19:32:04.843750,-47.83
2019-08-16 19:32:04.859375,-64.3
2019-08-16 19:32:04.875000,-73.38
2019-08-16 19:32:04.890625,-76.2
2019-08-16 19:32:04.906250,-76.96
2019-08-16 19:32:04.921875,-80.7
2019-08-16 19:32:04.937500,-90.98
2019-08-16 19:32:04.953125,-107.98
2019-08-16 19:32:04.968750,-128.08
2019-08-16 19:32:04.984375,-145.09
2019-08-16 19:32:05.000000,-152.73
2019-08-16 19:32:05.015625,-146.97
2019-08-16 19:32:05.031250,-127.62
2019-08-16 19:32:05.046875,-98.75
2019-08-16 19:32:05.062500,-67.33
2019-08-16 19:32:05.078125,-41.16
2019-08-16 19:32:05.093750,-26.47
2019-08-16 19:32:05.109375,-25.83
2019-08-16 19:32:05.125000,-37.24
2019-08-16 19:32:05.140625,-54.92
2019-08-16 19:32:05.156250,-71.3
2019-08-16 19:32:05.171875,-79.87
2019-08-16 19:32:05.187500,-78.07
2019-08-16 19:32:05.203125,-68.25
2019-08-16 19:32:05.218750,-56.96
2019-08-16 19:32:05.234375,-52.22
2019-08-16 19:32:05.250000,-60.16
2019-08-16 19:32:05.265625,-82.75
2019-08-16 19:32:05.281250,-117.17
2019-08-16 19:32:05.296875,-157.36
2019-08-16 19:32:05.312500,-196.64
2019-08-16 19:32:05.328125,-230.36
2019-08-16 19:32:05.343750,-256.94
2019-08-16 19:32:05.359375,-277.43
2019-08-16 19:32:05.375000,-293.76
2019-08-16 19:32:05.390625,-306.99
2019-08-16 19:32:05.406250,-316.39
2019-08-16 19:32:05.421875,-319.69
2019-08-16 19:32:05.437500,-314.21
2019-08-16 19:32:05.453125,-297.58
2019-08-16 19:32:05.468750,-269.09
2019-08-16 19:32:05.484375,-229.25
2019-08-16 19:32:05.500000,-179.17
2019-08-16 19:32:05.515625,-119.84
2019-08-16 19:32:05.531250,-52.01
2019-08-16 19:32:05.546875,23.07
2019-08-16 19:32:05.562500,102.86
2019-08-16 19:32:05.578125,183.01
2019-08-16 19:32:05.593750,257.78
2019-08-16 19:32:05.609375,321.13
2019-08-16 19:32:05.625000,368.53
2019-08-16 19:32:05.640625,398.05
2019-08-16 19:32:05.656250,410.68
2019-08-16 19:32:05.671875,409.66
2019-08-16 19:32:05.687500,399.11
2019-08-16 19:32:05.703125,382.72
2019-08-16 19:32:05.718750,362.83
2019-08-16 19:32:05.734375,340.34
2019-08-16 19:32:05.750000,315.21
2019-08-16 19:32:05.765625,287.27
2019-08-16 19:32:05.781250,256.93
2019-08-16 19:32:05.796875,225.35
2019-08-16 19:32:05.812500,194.19
2019-08-16 19:32:05.828125,165.12
2019-08-16 19:32:05.843750,139.29
2019-08-16 19:32:05.859375,117.01
2019-08-16 19:32:05.875000,97.86
2019-08-16 19:32:05.890625,80.93
2019-08-16 19:32:05.906250,65.36
2019-08-16 19:32:05.921875,50.58
2019-08-16 19:32:05.937500,36.57
2019-08-16 19:32:05.953125,23.63
2019-08-16 19:32:05.968750,12.2
2019-08-16 19:32:05.984375,2.57
2019-08-16 19:32:06.000000,-5.31
2019-08-16 19:32:06.015625,-11.69
2019-08-16 19:32:06.031250,-17.03
2019-08-16 19:32:06.046875,-21.82
2019-08-16 19:32:06.062500,-26.42
2019-08-16 19:32:06.078125,-31.01
2019-08-16 19:32:06.093750,-35.59
2019-08-16 19:32:06.109375,-40.07
2019-08-16 19:32:06.125000,-44.28
2019-08-16 19:32:06.140625,-48.07
2019-08-16 19:32:06.156250,-51.29
2019-08-16 19:32:06.171875,-53.8
2019-08-16 19:32:06.187500,-55.53
2019-08-16 19:32:06.203125,-56.38
2019-08-16 19:32:06.218750,-56.29
2019-08-16 19:32:06.234375,-55.29
2019-08-16 19:32:06.250000,-53.45
2019-08-16 19:32:06.265625,-50.96
2019-08-16 19:32:06.281250,-48.0
2019-08-16 19:32:06.296875,-44.8
2019-08-16 19:32:06.312500,-41.58
2019-08-16 19:32:06.328125,-38.53
2019-08-16 19:32:06.343750,-35.72
2019-08-16 19:32:06.359375,-33.19
2019-08-16 19:32:06.375000,-30.94
2019-08-16 19:32:06.390625,-28.91
2019-08-16 19:32:06.406250,-27.06
2019-08-16 19:32:06.421875,-25.34
2019-08-16 19:32:06.437500,-23.74
2019-08-16 19:32:06.453125,-22.07
2019-08-16 19:32:06.468750,-20.47
2019-08-16 19:32:06.484375,-18.95
2019-08-16 19:32:06.500000,-17.55
2019-08-16 19:32:06.515625,-16.24
2019-08-16 19:32:06.531250,-14.98
2019-08-16 19:32:06.546875,-13.73
2019-08-16 19:32:06.562500,-12.49
2019-08-16 19:32:06.578125,-11.25
2019-08-16 19:32:06.593750,-10.05
2019-08-16 19:32:06.609375,-8.93
2019-08-16 19:32:06.625000,-7.91
2019-08-16 19:32:06.640625,-7.01
2019-08-16 19:32:06.656250,-6.21
2019-08-16 19:32:06.671875,-5.47
2019-08-16 19:32:06.687500,-4.73
2019-08-16 19:32:06.703125,-3.93
2019-08-16 19:32:06.718750,-3.06
2019-08-16 19:32:06.734375,-2.14
2019-08-16 19:32:06.750000,-1.22
2019-08-16 19:32:06.765625,-0.34
2019-08-16 19:32:06.781250,0.47
2019-08-16 19:32:06.796875,1.28
2019-08-16 19:32:06.812500,2.22
2019-08-16 19:32:06.828125,3.37
2019-08-16 19:32:06.843750,4.8
2019-08-16 19:32:06.859375,6.42
2019-08-16 19:32:06.875000,8.08
2019-08-16 19:32:06.890625,9.62
2019-08-16 19:32:06.906250,10.91
2019-08-16 19:32:06.921875,11.95
2019-08-16 19:32:06.937500,12.93
2019-08-16 19:32:06.953125,14.1
2019-08-16 19:32:06.968750,15.68
2019-08-16 19:32:06.984375,17.81
2019-08-16 19:32:07.000000,20.4
2019-08-16 19:32:07.015625,23.19
2019-08-16 19:32:07.031250,25.93
2019-08-16 19:32:07.046875,28.46
2019-08-16 19:32:07.062500,30.86
2019-08-16 19:32:07.078125,33.56
2019-08-16 19:32:07.093750,37.21
2019-08-16 19:32:07.109375,42.34
2019-08-16 19:32:07.125000,49.37
2019-08-16 19:32:07.140625,58.0
2019-08-16 19:32:07.156250,67.37
2019-08-16 19:32:07.171875,76.1
2019-08-16 19:32:07.187500,82.63
2019-08-16 19:32:07.203125,85.26
2019-08-16 19:32:07.218750,82.92
2019-08-16 19:32:07.234375,75.18
2019-08-16 19:32:07.250000,62.51
2019-08-16 19:32:07.265625,45.93
2019-08-16 19:32:07.281250,26.73
2019-08-16 19:32:07.296875,6.19
2019-08-16 19:32:07.312500,-14.96
2019-08-16 19:32:07.328125,-36.83
2019-08-16 19:32:07.343750,-60.52
2019-08-16 19:32:07.359375,-86.75
2019-08-16 19:32:07.375000,-114.37
2019-08-16 19:32:07.390625,-139.43
2019-08-16 19:32:07.406250,-155.67
2019-08-16 19:32:07.421875,-157.08
2019-08-16 19:32:07.437500,-141.06
2019-08-16 19:32:07.453125,-109.33
2019-08-16 19:32:07.468750,-68.56
2019-08-16 19:32:07.484375,-27.55
2019-08-16 19:32:07.500000,5.84
2019-08-16 19:32:07.515625,26.48
2019-08-16 19:32:07.531250,32.04
2019-08-16 19:32:07.546875,22.29
2019-08-16 19:32:07.562500,-1.13
2019-08-16 19:32:07.578125,-33.98
2019-08-16 19:32:07.593750,-68.82
2019-08-16 19:32:07.609375,-96.41
2019-08-16 19:32:07.625000,-108.29
2019-08-16 19:32:07.640625,-100.58
2019-08-16 19:32:07.656250,-76.16
2019-08-16 19:32:07.671875,-43.57
2019-08-16 19:32:07.687500,-13.1
2019-08-16 19:32:07.703125,7.88
2019-08-16 19:32:07.718750,17.51
2019-08-16 19:32:07.734375,18.56
2019-08-16 19:32:07.750000,15.56
2019-08-16 19:32:07.765625,11.84
2019-08-16 19:32:07.781250,8.19
2019-08-16 19:32:07.796875,3.95
2019-08-16 19:32:07.812500,-1.45
2019-08-16 19:32:07.828125,-7.25
2019-08-16 19:32:07.843750,-11.83
2019-08-16 19:32:07.859375,-13.81
2019-08-16 19:32:07.875000,-13.02
2019-08-16 19:32:07.890625,-10.8
2019-08-16 19:32:07.906250,-9.1
2019-08-16 19:32:07.921875,-9.83
2019-08-16 19:32:07.937500,-13.68
2019-08-16 19:32:07.953125,-20.0
2019-08-16 19:32:07.968750,-27.15
2019-08-16 19:32:07.984375,-33.34
2019-08-16 19:32:08.000000,-37.48
2019-08-16 19:32:08.015625,-39.68
2019-08-16 19:32:08.031250,-41.08
2019-08-16 19:32:08.046875,-43.15
2019-08-16 19:32:08.062500,-47.24
2019-08-16 19:32:08.078125,-53.75
2019-08-16 19:32:08.093750,-62.1
2019-08-16 19:32:08.109375,-70.71
2019-08-16 19:32:08.125000,-77.69
2019-08-16 19:32:08.140625,-81.43
2019-08-16 19:32:08.156250,-81.23
2019-08-16 19:32:08.171875,-77.51
2019-08-16 19:32:08.187500,-70.9
2019-08-16 19:32:08.203125,-62.38
2019-08-16 19:32:08.218750,-52.76
2019-08-16 19:32:08.234375,-42.49
2019-08-16 19:32:08.250000,-31.45
2019-08-16 19:32:08.265625,-19.24
2019-08-16 19:32:08.281250,-5.28
2019-08-16 19:32:08.296875,10.68
2019-08-16 19:32:08.312500,28.39
2019-08-16 19:32:08.328125,47.27
2019-08-16 19:32:08.343750,66.35
2019-08-16 19:32:08.359375,84.65
2019-08-16 19:32:08.375000,101.33
2019-08-16 19:32:08.390625,115.8
2019-08-16 19:32:08.406250,127.66
2019-08-16 19:32:08.421875,136.48
2019-08-16 19:32:08.437500,141.49
2019-08-16 19:32:08.453125,141.45
2019-08-16 19:32:08.468750,135.0
2019-08-16 19:32:08.484375,120.98
2019-08-16 19:32:08.500000,99.13
2019-08-16 19:32:08.515625,70.61
2019-08-16 19:32:08.531250,38.05
2019-08-16 19:32:08.546875,5.46
2019-08-16 19:32:08.562500,-22.72
2019-08-16 19:32:08.578125,-42.63
2019-08-16 19:32:08.593750,-52.26
2019-08-16 19:32:08.609375,-51.8
2019-08-16 19:32:08.625000,-43.46
2019-08-16 19:32:08.640625,-30.58
2019-08-16 19:32:08.656250,-16.42
2019-08-16 19:32:08.671875,-3.28
2019-08-16 19:32:08.687500,7.92
2019-08-16 19:32:08.703125,17.65
2019-08-16 19:32:08.718750,27.58
2019-08-16 19:32:08.734375,39.69
2019-08-16 19:32:08.750000,55.67
2019-08-16 19:32:08.765625,75.49
2019-08-16 19:32:08.781250,96.54
2019-08-16 19:32:08.796875,113.55
2019-08-16 19:32:08.812500,119.81
2019-08-16 19:32:08.828125,109.87
2019-08-16 19:32:08.843750,82.41
2019-08-16 19:32:08.859375,41.68
2019-08-16 19:32:08.875000,-3.4
2019-08-16 19:32:08.890625,-42.1
2019-08-16 19:32:08.906250,-65.82
2019-08-16 19:32:08.921875,-70.7
2019-08-16 19:32:08.937500,-58.25
2019-08-16 19:32:08.953125,-34.21
2019-08-16 19:32:08.968750,-5.98
2019-08-16 19:32:08.984375,19.62
2019-08-16 19:32:09.000000,37.55
2019-08-16 19:32:09.015625,45.04
2019-08-16 19:32:09.031250,41.87
2019-08-16 19:32:09.046875,30.29
2019-08-16 19:32:09.062500,14.64
2019-08-16 19:32:09.078125,0.22
2019-08-16 19:32:09.093750,-9.2
2019-08-16 19:32:09.109375,-12.89
2019-08-16 19:32:09.125000,-13.5
2019-08-16 19:32:09.140625,-15.37
2019-08-16 19:32:09.156250,-22.25
2019-08-16 19:32:09.171875,-34.59
2019-08-16 19:32:09.187500,-49.57
2019-08-16 19:32:09.203125,-63.01
2019-08-16 19:32:09.218750,-71.3
2019-08-16 19:32:09.234375,-72.54
2019-08-16 19:32:09.250000,-65.35
2019-08-16 19:32:09.265625,-46.96
2019-08-16 19:32:09.281250,-12.94
2019-08-16 19:32:09.296875,40.11
2019-08-16 19:32:09.312500,111.03
2019-08-16 19:32:09.328125,191.31
2019-08-16 19:32:09.343750,266.15
2019-08-16 19:32:09.359375,319.45
2019-08-16 19:32:09.375000,340.18
2019-08-16 19:32:09.390625,326.4
2019-08-16 19:32:09.406250,284.67
2019-08-16 19:32:09.421875,225.8
2019-08-16 19:32:09.437500,159.81
2019-08-16 19:32:09.453125,93.55
2019-08-16 19:32:09.468750,31.49
2019-08-16 19:32:09.484375,-22.14
2019-08-16 19:32:09.500000,-62.4
2019-08-16 19:32:09.515625,-85.1
2019-08-16 19:32:09.531250,-89.77
2019-08-16 19:32:09.546875,-81.75
2019-08-16 19:32:09.562500,-71.5
2019-08-16 19:32:09.578125,-71.03
2019-08-16 19:32:09.593750,-88.58
2019-08-16 19:32:09.609375,-124.48
2019-08-16 19:32:09.625000,-170.56
2019-08-16 19:32:09.640625,-213.15
2019-08-16 19:32:09.656250,-238.8
2019-08-16 19:32:09.671875,-239.76
2019-08-16 19:32:09.687500,-216.43
2019-08-16 19:32:09.703125,-176.65
2019-08-16 19:32:09.718750,-133.26
2019-08-16 19:32:09.734375,-99.85
2019-08-16 19:32:09.750000,-87.7
2019-08-16 19:32:09.765625,-103.88
2019-08-16 19:32:09.781250,-150.3
2019-08-16 19:32:09.796875,-223.85
2019-08-16 19:32:09.812500,-316.38
2019-08-16 19:32:09.828125,-415.52
2019-08-16 19:32:09.843750,-501.28
2019-08-16 19:32:09.859375,-553.77
2019-08-16 19:32:09.875000,-558.74
2019-08-16 19:32:09.890625,-512.94
2019-08-16 19:32:09.906250,-424.96
2019-08-16 19:32:09.921875,-310.99
2019-08-16 19:32:09.937500,-188.54
2019-08-16 19:32:09.953125,-71.83
2019-08-16 19:32:09.968750,30.11
2019-08-16 19:32:09.984375,112.9
2019-08-16 19:32:10.000000,174.78
2019-08-16 19:32:10.015625,216.11
2019-08-16 19:32:10.031250,239.02
2019-08-16 19:32:10.046875,247.14
2019-08-16 19:32:10.062500,245.03
2019-08-16 19:32:10.078125,237.32
2019-08-16 19:32:10.093750,227.56
2019-08-16 19:32:10.109375,217.89
2019-08-16 19:32:10.125000,209.11
2019-08-16 19:32:10.140625,200.45
2019-08-16 19:32:10.156250,190.77
2019-08-16 19:32:10.171875,179.27
2019-08-16 19:32:10.187500,165.98
2019-08-16 19:32:10.203125,151.85
2019-08-16 19:32:10.218750,138.22
2019-08-16 19:32:10.234375,126.21
2019-08-16 19:32:10.250000,116.34
2019-08-16 19:32:10.265625,108.44
2019-08-16 19:32:10.281250,101.55
2019-08-16 19:32:10.296875,94.64
2019-08-16 19:32:10.312500,86.94
2019-08-16 19:32:10.328125,78.34
2019-08-16 19:32:10.343750,69.4
2019-08-16 19:32:10.359375,60.92
2019-08-16 19:32:10.375000,53.5
2019-08-16 19:32:10.390625,47.37
2019-08-16 19:32:10.406250,42.32
2019-08-16 19:32:10.421875,37.81
2019-08-16 19:32:10.437500,33.4
2019-08-16 19:32:10.453125,28.93
2019-08-16 19:32:10.468750,24.57
2019-08-16 19:32:10.484375,20.7
2019-08-16 19:32:10.500000,17.58
2019-08-16 19:32:10.515625,15.1
2019-08-16 19:32:10.531250,12.93
2019-08-16 19:32:10.546875,10.61
2019-08-16 19:32:10.562500,7.92
2019-08-16 19:32:10.578125,5.05
2019-08-16 19:32:10.593750,2.59
2019-08-16 19:32:10.609375,1.16
2019-08-16 19:32:10.625000,1.13
2019-08-16 19:32:10.640625,2.27
2019-08-16 19:32:10.656250,3.7
2019-08-16 19:32:10.671875,4.41
2019-08-16 19:32:10.687500,3.65
2019-08-16 19:32:10.703125,1.46
2019-08-16 19:32:10.718750,-1.26
2019-08-16 19:32:10.734375,-3.07
2019-08-16 19:32:10.750000,-2.72
2019-08-16 19:32:10.765625,0.59
2019-08-16 19:32:10.781250,6.69
2019-08-16 19:32:10.796875,14.52
2019-08-16 19:32:10.812500,22.87
2019-08-16 19:32:10.828125,30.52
2019-08-16 19:32:10.843750,36.44
2019-08-16 19:32:10.859375,39.39
2019-08-16 19:32:10.875000,38.71
2019-08-16 19:32:10.890625,34.5
2019-08-16 19:32:10.906250,28.64
2019-08-16 19:32:10.921875,24.45
2019-08-16 19:32:10.937500,25.34
2019-08-16 19:32:10.953125,32.96
2019-08-16 19:32:10.968750,45.66
2019-08-16 19:32:10.984375,58.49
2019-08-16 19:32:11.000000,65.73
2019-08-16 19:32:11.015625,63.16
2019-08-16 19:32:11.031250,50.22
2019-08-16 19:32:11.046875,30.13
2019-08-16 19:32:11.062500,8.06
2019-08-16 19:32:11.078125,-11.45
2019-08-16 19:32:11.093750,-26.11
2019-08-16 19:32:11.109375,-36.23
2019-08-16 19:32:11.125000,-43.2
2019-08-16 19:32:11.140625,-48.02
2019-08-16 19:32:11.156250,-50.83
2019-08-16 19:32:11.171875,-51.1
2019-08-16 19:32:11.187500,-48.54
2019-08-16 19:32:11.203125,-43.75
2019-08-16 19:32:11.218750,-38.2
2019-08-16 19:32:11.234375,-33.53
2019-08-16 19:32:11.250000,-31.0
2019-08-16 19:32:11.265625,-30.77
2019-08-16 19:32:11.281250,-31.84
2019-08-16 19:32:11.296875,-32.87
2019-08-16 19:32:11.312500,-32.68
2019-08-16 19:32:11.328125,-30.79
2019-08-16 19:32:11.343750,-27.6
2019-08-16 19:32:11.359375,-24.09
2019-08-16 19:32:11.375000,-21.35
2019-08-16 19:32:11.390625,-20.06
2019-08-16 19:32:11.406250,-20.27
2019-08-16 19:32:11.421875,-21.37
2019-08-16 19:32:11.437500,-22.54
2019-08-16 19:32:11.453125,-23.09
2019-08-16 19:32:11.468750,-22.77
2019-08-16 19:32:11.484375,-21.85
2019-08-16 19:32:11.500000,-20.88
2019-08-16 19:32:11.515625,-20.43
2019-08-16 19:32:11.531250,-20.79
2019-08-16 19:32:11.546875,-21.92
2019-08-16 19:32:11.562500,-23.48
2019-08-16 19:32:11.578125,-25.13
2019-08-16 19:32:11.593750,-26.65
2019-08-16 19:32:11.609375,-28.07
2019-08-16 19:32:11.625000,-29.61
2019-08-16 19:32:11.640625,-31.48
2019-08-16 19:32:11.656250,-33.7
2019-08-16 19:32:11.671875,-36.11
2019-08-16 19:32:11.687500,-38.53
2019-08-16 19:32:11.703125,-40.93
2019-08-16 19:32:11.718750,-43.56
2019-08-16 19:32:11.734375,-46.91
2019-08-16 19:32:11.750000,-51.52
2019-08-16 19:32:11.765625,-57.77
2019-08-16 19:32:11.781250,-65.39
2019-08-16 19:32:11.796875,-73.47
2019-08-16 19:32:11.812500,-80.53
2019-08-16 19:32:11.828125,-85.17
2019-08-16 19:32:11.843750,-86.46
2019-08-16 19:32:11.859375,-84.39
2019-08-16 19:32:11.875000,-79.13
2019-08-16 19:32:11.890625,-71.31
2019-08-16 19:32:11.906250,-61.42
2019-08-16 19:32:11.921875,-49.62
2019-08-16 19:32:11.937500,-35.72
2019-08-16 19:32:11.953125,-19.59
2019-08-16 19:32:11.968750,-1.66
2019-08-16 19:32:11.984375,16.64
2019-08-16 19:32:12.000000,33.0
2019-08-16 19:32:12.015625,44.86
2019-08-16 19:32:12.031250,50.46
2019-08-16 19:32:12.046875,49.61
2019-08-16 19:32:12.062500,43.99
2019-08-16 19:32:12.078125,36.75
2019-08-16 19:32:12.093750,31.47
2019-08-16 19:32:12.109375,31.28
2019-08-16 19:32:12.125000,38.09
2019-08-16 19:32:12.140625,52.59
2019-08-16 19:32:12.156250,74.12
2019-08-16 19:32:12.171875,99.8
2019-08-16 19:32:12.187500,125.31
2019-08-16 19:32:12.203125,144.82
2019-08-16 19:32:12.218750,152.58
2019-08-16 19:32:12.234375,145.15
2019-08-16 19:32:12.250000,123.38
2019-08-16 19:32:12.265625,92.31
2019-08-16 19:32:12.281250,59.36
2019-08-16 19:32:12.296875,31.24
2019-08-16 19:32:12.312500,11.53
2019-08-16 19:32:12.328125,0.27
2019-08-16 19:32:12.343750,-4.87
2019-08-16 19:32:12.359375,-6.28
2019-08-16 19:32:12.375000,-4.94
2019-08-16 19:32:12.390625,-0.73
2019-08-16 19:32:12.406250,6.05
2019-08-16 19:32:12.421875,13.52
2019-08-16 19:32:12.437500,18.47
2019-08-16 19:32:12.453125,17.95
2019-08-16 19:32:12.468750,11.42
2019-08-16 19:32:12.484375,1.64
2019-08-16 19:32:12.500000,-6.69
2019-08-16 19:32:12.515625,-8.83
2019-08-16 19:32:12.531250,-2.73
2019-08-16 19:32:12.546875,9.49
2019-08-16 19:32:12.562500,22.29
2019-08-16 19:32:12.578125,29.35
2019-08-16 19:32:12.593750,26.4
2019-08-16 19:32:12.609375,13.22
2019-08-16 19:32:12.625000,-6.86
2019-08-16 19:32:12.640625,-28.18
2019-08-16 19:32:12.656250,-44.52
2019-08-16 19:32:12.671875,-50.96
2019-08-16 19:32:12.687500,-45.02
2019-08-16 19:32:12.703125,-27.0
2019-08-16 19:32:12.718750,-0.42
2019-08-16 19:32:12.734375,28.09
2019-08-16 19:32:12.750000,49.71
2019-08-16 19:32:12.765625,56.4
2019-08-16 19:32:12.781250,44.86
2019-08-16 19:32:12.796875,18.95
2019-08-16 19:32:12.812500,-10.59
2019-08-16 19:32:12.828125,-30.98
2019-08-16 19:32:12.843750,-33.22
2019-08-16 19:32:12.859375,-16.81
2019-08-16 19:32:12.875000,10.2
2019-08-16 19:32:12.890625,35.48
2019-08-16 19:32:12.906250,49.02
2019-08-16 19:32:12.921875,47.78
2019-08-16 19:32:12.937500,36.0
2019-08-16 19:32:12.953125,21.44
2019-08-16 19:32:12.968750,10.84
2019-08-16 19:32:12.984375,6.61
2019-08-16 19:32:13.000000,6.09
2019-08-16 19:32:13.015625,4.01
2019-08-16 19:32:13.031250,-4.74
2019-08-16 19:32:13.046875,-22.7
2019-08-16 19:32:13.062500,-48.59
2019-08-16 19:32:13.078125,-76.98
2019-08-16 19:32:13.093750,-99.45
2019-08-16 19:32:13.109375,-107.52
2019-08-16 19:32:13.125000,-96.36
2019-08-16 19:32:13.140625,-67.86
2019-08-16 19:32:13.156250,-30.66
2019-08-16 19:32:13.171875,3.13
2019-08-16 19:32:13.187500,23.09
2019-08-16 19:32:13.203125,24.88
2019-08-16 19:32:13.218750,11.68
2019-08-16 19:32:13.234375,-8.18
2019-08-16 19:32:13.250000,-26.17
2019-08-16 19:32:13.265625,-37.73
2019-08-16 19:32:13.281250,-42.54
2019-08-16 19:32:13.296875,-44.19
2019-08-16 19:32:13.312500,-46.17
2019-08-16 19:32:13.328125,-49.02
2019-08-16 19:32:13.343750,-50.13
2019-08-16 19:32:13.359375,-45.87
2019-08-16 19:32:13.375000,-34.07
2019-08-16 19:32:13.390625,-15.92
2019-08-16 19:32:13.406250,4.28
2019-08-16 19:32:13.421875,21.06
2019-08-16 19:32:13.437500,30.18
2019-08-16 19:32:13.453125,30.36
2019-08-16 19:32:13.468750,23.84
2019-08-16 19:32:13.484375,15.21
2019-08-16 19:32:13.500000,9.01
2019-08-16 19:32:13.515625,8.06
2019-08-16 19:32:13.531250,12.32
2019-08-16 19:32:13.546875,19.63
2019-08-16 19:32:13.562500,27.09
2019-08-16 19:32:13.578125,32.45
2019-08-16 19:32:13.593750,34.96
2019-08-16 19:32:13.609375,35.68
2019-08-16 19:32:13.625000,36.17
2019-08-16 19:32:13.640625,37.15
2019-08-16 19:32:13.656250,38.39
2019-08-16 19:32:13.671875,39.59
2019-08-16 19:32:13.687500,40.58
2019-08-16 19:32:13.703125,42.97
2019-08-16 19:32:13.718750,49.3
2019-08-16 19:32:13.734375,61.42
2019-08-16 19:32:13.750000,78.56
2019-08-16 19:32:13.765625,96.72
2019-08-16 19:32:13.781250,109.09
2019-08-16 19:32:13.796875,110.7
2019-08-16 19:32:13.812500,99.62
2019-08-16 19:32:13.828125,77.97
2019-08-16 19:32:13.843750,50.91
2019-08-16 19:32:13.859375,24.02
2019-08-16 19:32:13.875000,1.31
2019-08-16 19:32:13.890625,-15.7
2019-08-16 19:32:13.906250,-27.43
2019-08-16 19:32:13.921875,-35.06
2019-08-16 19:32:13.937500,-39.34
2019-08-16 19:32:13.953125,-40.95
2019-08-16 19:32:13.968750,-40.43
2019-08-16 19:32:13.984375,-38.41
2019-08-16 19:32:14.000000,-35.72
2019-08-16 19:32:14.015625,-32.95
2019-08-16 19:32:14.031250,-30.5
2019-08-16 19:32:14.046875,-28.44
2019-08-16 19:32:14.062500,-26.79
2019-08-16 19:32:14.078125,-25.36
2019-08-16 19:32:14.093750,-24.31
2019-08-16 19:32:14.109375,-24.0
2019-08-16 19:32:14.125000,-24.65
2019-08-16 19:32:14.140625,-26.65
2019-08-16 19:32:14.156250,-30.11
2019-08-16 19:32:14.171875,-34.78
2019-08-16 19:32:14.187500,-39.96
2019-08-16 19:32:14.203125,-44.39
2019-08-16 19:32:14.218750,-46.72
2019-08-16 19:32:14.234375,-46.9
2019-08-16 19:32:14.250000,-46.88
2019-08-16 19:32:14.265625,-50.04
2019-08-16 19:32:14.281250,-60.15
2019-08-16 19:32:14.296875,-78.87
2019-08-16 19:32:14.312500,-103.83
2019-08-16 19:32:14.328125,-128.76
2019-08-16 19:32:14.343750,-145.51
2019-08-16 19:32:14.359375,-146.75
2019-08-16 19:32:14.375000,-131.15
2019-08-16 19:32:14.390625,-102.51
2019-08-16 19:32:14.406250,-67.93
2019-08-16 19:32:14.421875,-34.55
2019-08-16 19:32:14.437500,-6.79
2019-08-16 19:32:14.453125,14.5
2019-08-16 19:32:14.468750,30.77
2019-08-16 19:32:14.484375,43.83
2019-08-16 19:32:14.500000,54.31
2019-08-16 19:32:14.515625,61.31
2019-08-16 19:32:14.531250,63.8
2019-08-16 19:32:14.546875,61.6
2019-08-16 19:32:14.562500,55.78
2019-08-16 19:32:14.578125,48.45
2019-08-16 19:32:14.593750,42.27
2019-08-16 19:32:14.609375,39.18
2019-08-16 19:32:14.625000,39.78
2019-08-16 19:32:14.640625,43.58
2019-08-16 19:32:14.656250,48.82
2019-08-16 19:32:14.671875,53.82
2019-08-16 19:32:14.687500,57.69
2019-08-16 19:32:14.703125,60.29
2019-08-16 19:32:14.718750,61.73
2019-08-16 19:32:14.734375,61.89
2019-08-16 19:32:14.750000,60.28
2019-08-16 19:32:14.765625,56.55
2019-08-16 19:32:14.781250,51.61
2019-08-16 19:32:14.796875,47.82
2019-08-16 19:32:14.812500,48.24
2019-08-16 19:32:14.828125,54.7
2019-08-16 19:32:14.843750,66.15
2019-08-16 19:32:14.859375,78.26
2019-08-16 19:32:14.875000,85.65
2019-08-16 19:32:14.890625,83.97
2019-08-16 19:32:14.906250,72.16
2019-08-16 19:32:14.921875,52.81
2019-08-16 19:32:14.937500,30.59
2019-08-16 19:32:14.953125,9.97
2019-08-16 19:32:14.968750,-6.52
2019-08-16 19:32:14.984375,-18.79
2019-08-16 19:32:15.000000,-27.83
2019-08-16 19:32:15.015625,-34.35
2019-08-16 19:32:15.031250,-38.41
2019-08-16 19:32:15.046875,-39.54
2019-08-16 19:32:15.062500,-37.58
2019-08-16 19:32:15.078125,-33.3
2019-08-16 19:32:15.093750,-28.28
2019-08-16 19:32:15.109375,-24.19
2019-08-16 19:32:15.125000,-22.34
2019-08-16 19:32:15.140625,-22.86
2019-08-16 19:32:15.156250,-24.7
2019-08-16 19:32:15.171875,-26.44
2019-08-16 19:32:15.187500,-26.83
2019-08-16 19:32:15.203125,-25.3
2019-08-16 19:32:15.218750,-22.19
2019-08-16 19:32:15.234375,-18.51
2019-08-16 19:32:15.250000,-15.43
2019-08-16 19:32:15.265625,-13.78
2019-08-16 19:32:15.281250,-13.67
2019-08-16 19:32:15.296875,-14.53
2019-08-16 19:32:15.312500,-15.53
2019-08-16 19:32:15.328125,-15.85
2019-08-16 19:32:15.343750,-15.12
2019-08-16 19:32:15.359375,-13.53
2019-08-16 19:32:15.375000,-11.66
2019-08-16 19:32:15.390625,-10.19
2019-08-16 19:32:15.406250,-9.59
2019-08-16 19:32:15.421875,-9.93
2019-08-16 19:32:15.437500,-10.9
2019-08-16 19:32:15.453125,-12.06
2019-08-16 19:32:15.468750,-12.96
2019-08-16 19:32:15.484375,-13.42
2019-08-16 19:32:15.500000,-13.54
2019-08-16 19:32:15.515625,-13.62
2019-08-16 19:32:15.531250,-13.98
2019-08-16 19:32:15.546875,-14.84
2019-08-16 19:32:15.562500,-16.24
2019-08-16 19:32:15.578125,-18.04
2019-08-16 19:32:15.593750,-20.09
2019-08-16 19:32:15.609375,-22.2
2019-08-16 19:32:15.625000,-24.29
2019-08-16 19:32:15.640625,-26.37
2019-08-16 19:32:15.656250,-28.52
2019-08-16 19:32:15.671875,-30.84
2019-08-16 19:32:15.687500,-33.42
2019-08-16 19:32:15.703125,-36.34
2019-08-16 19:32:15.718750,-39.74
2019-08-16 19:32:15.734375,-43.76
2019-08-16 19:32:15.750000,-48.53
2019-08-16 19:32:15.765625,-54.18
2019-08-16 19:32:15.781250,-60.72
2019-08-16 19:32:15.796875,-68.01
2019-08-16 19:32:15.812500,-75.72
2019-08-16 19:32:15.828125,-83.28
2019-08-16 19:32:15.843750,-89.83
2019-08-16 19:32:15.859375,-94.44
2019-08-16 19:32:15.875000,-96.34
2019-08-16 19:32:15.890625,-94.6
2019-08-16 19:32:15.906250,-88.65
2019-08-16 19:32:15.921875,-78.44
2019-08-16 19:32:15.937500,-64.43
2019-08-16 19:32:15.953125,-47.57
2019-08-16 19:32:15.968750,-29.03
2019-08-16 19:32:15.984375,-10.02
2019-08-16 19:32:16.000000,8.4
2019-08-16 19:32:16.015625,25.36
2019-08-16 19:32:16.031250,40.32
2019-08-16 19:32:16.046875,52.89
2019-08-16 19:32:16.062500,62.85
2019-08-16 19:32:16.078125,70.23
2019-08-16 19:32:16.093750,75.31
2019-08-16 19:32:16.109375,78.55
2019-08-16 19:32:16.125000,80.49
2019-08-16 19:32:16.140625,81.74
2019-08-16 19:32:16.156250,82.82
2019-08-16 19:32:16.171875,84.11
2019-08-16 19:32:16.187500,85.65
2019-08-16 19:32:16.203125,87.42
2019-08-16 19:32:16.218750,89.26
2019-08-16 19:32:16.234375,91.11
2019-08-16 19:32:16.250000,92.89
2019-08-16 19:32:16.265625,94.36
2019-08-16 19:32:16.281250,95.16
2019-08-16 19:32:16.296875,94.81
2019-08-16 19:32:16.312500,93.15
2019-08-16 19:32:16.328125,90.56
2019-08-16 19:32:16.343750,88.29
2019-08-16 19:32:16.359375,87.99
2019-08-16 19:32:16.375000,90.56
2019-08-16 19:32:16.390625,94.99
2019-08-16 19:32:16.406250,98.05
2019-08-16 19:32:16.421875,95.45
2019-08-16 19:32:16.437500,83.8
2019-08-16 19:32:16.453125,62.61
2019-08-16 19:32:16.468750,34.52
2019-08-16 19:32:16.484375,4.33
2019-08-16 19:32:16.500000,-23.31
2019-08-16 19:32:16.515625,-45.62
2019-08-16 19:32:16.531250,-61.87
2019-08-16 19:32:16.546875,-72.28
2019-08-16 19:32:16.562500,-76.83
2019-08-16 19:32:16.578125,-75.17
2019-08-16 19:32:16.593750,-67.63
2019-08-16 19:32:16.609375,-56.67
2019-08-16 19:32:16.625000,-47.2
2019-08-16 19:32:16.640625,-44.95
2019-08-16 19:32:16.656250,-53.58
2019-08-16 19:32:16.671875,-72.27
2019-08-16 19:32:16.687500,-95.62
2019-08-16 19:32:16.703125,-116.14
2019-08-16 19:32:16.718750,-128.2
2019-08-16 19:32:16.734375,-130.68
2019-08-16 19:32:16.750000,-127.33
2019-08-16 19:32:16.765625,-123.97
2019-08-16 19:32:16.781250,-124.46
2019-08-16 19:32:16.796875,-128.43
2019-08-16 19:32:16.812500,-130.96
2019-08-16 19:32:16.828125,-125.66
2019-08-16 19:32:16.843750,-108.65
2019-08-16 19:32:16.859375,-80.9
2019-08-16 19:32:16.875000,-47.91
2019-08-16 19:32:16.890625,-17.41
2019-08-16 19:32:16.906250,4.34
2019-08-16 19:32:16.921875,15.53
2019-08-16 19:32:16.937500,18.78
2019-08-16 19:32:16.953125,19.15
2019-08-16 19:32:16.968750,21.1
2019-08-16 19:32:16.984375,26.79
2019-08-16 19:32:17.000000,36.45
2019-08-16 19:32:17.015625,49.8
2019-08-16 19:32:17.031250,66.78
2019-08-16 19:32:17.046875,86.9
2019-08-16 19:32:17.062500,107.92
2019-08-16 19:32:17.078125,124.86
2019-08-16 19:32:17.093750,131.52
2019-08-16 19:32:17.109375,123.8
2019-08-16 19:32:17.125000,102.87
2019-08-16 19:32:17.140625,76.59
2019-08-16 19:32:17.156250,57.28
2019-08-16 19:32:17.171875,57.05
2019-08-16 19:32:17.187500,82.38
2019-08-16 19:32:17.203125,130.9
2019-08-16 19:32:17.218750,191.65
2019-08-16 19:32:17.234375,248.86
2019-08-16 19:32:17.250000,286.93
2019-08-16 19:32:17.265625,295.14
2019-08-16 19:32:17.281250,270.63
2019-08-16 19:32:17.296875,218.61
2019-08-16 19:32:17.312500,150.51
2019-08-16 19:32:17.328125,79.95
2019-08-16 19:32:17.343750,18.22
2019-08-16 19:32:17.359375,-28.99
2019-08-16 19:32:17.375000,-62.2
2019-08-16 19:32:17.390625,-86.13
2019-08-16 19:32:17.406250,-106.52
2019-08-16 19:32:17.421875,-126.77
2019-08-16 19:32:17.437500,-146.55
2019-08-16 19:32:17.453125,-162.34
2019-08-16 19:32:17.468750,-169.75
2019-08-16 19:32:17.484375,-165.92
2019-08-16 19:32:17.500000,-150.81
2019-08-16 19:32:17.515625,-126.16
2019-08-16 19:32:17.531250,-94.03
2019-08-16 19:32:17.546875,-56.12
2019-08-16 19:32:17.562500,-14.77
2019-08-16 19:32:17.578125,25.91
2019-08-16 19:32:17.593750,60.61
2019-08-16 19:32:17.609375,83.5
2019-08-16 19:32:17.625000,89.56
2019-08-16 19:32:17.640625,76.72
2019-08-16 19:32:17.656250,47.51
2019-08-16 19:32:17.671875,8.86
2019-08-16 19:32:17.687500,-29.87
2019-08-16 19:32:17.703125,-61.44
2019-08-16 19:32:17.718750,-83.72
2019-08-16 19:32:17.734375,-100.48
2019-08-16 19:32:17.750000,-119.6
2019-08-16 19:32:17.765625,-148.28
2019-08-16 19:32:17.781250,-190.03
2019-08-16 19:32:17.796875,-242.06
2019-08-16 19:32:17.812500,-294.09
2019-08-16 19:32:17.828125,-332.1
2019-08-16 19:32:17.843750,-344.78
2019-08-16 19:32:17.859375,-328.0
2019-08-16 19:32:17.875000,-286.27
2019-08-16 19:32:17.890625,-230.35
2019-08-16 19:32:17.906250,-172.21
2019-08-16 19:32:17.921875,-120.28
2019-08-16 19:32:17.937500,-76.92
2019-08-16 19:32:17.953125,-39.37
2019-08-16 19:32:17.968750,0.49
2019-08-16 19:32:17.984375,49.0
2019-08-16 19:32:18.000000,107.83
2019-08-16 19:32:18.015625,173.63
2019-08-16 19:32:18.031250,239.63
2019-08-16 19:32:18.046875,298.36
2019-08-16 19:32:18.062500,344.52
2019-08-16 19:32:18.078125,376.75
2019-08-16 19:32:18.093750,388.97
2019-08-16 19:32:18.109375,380.44
2019-08-16 19:32:18.125000,353.16
2019-08-16 19:32:18.140625,310.84
2019-08-16 19:32:18.156250,257.86
2019-08-16 19:32:18.171875,198.91
2019-08-16 19:32:18.187500,138.63
2019-08-16 19:32:18.203125,81.2
2019-08-16 19:32:18.218750,30.06
2019-08-16 19:32:18.234375,-12.92
2019-08-16 19:32:18.250000,-46.35
2019-08-16 19:32:18.265625,-70.89
2019-08-16 19:32:18.281250,-88.59
2019-08-16 19:32:18.296875,-101.82
2019-08-16 19:32:18.312500,-112.12
2019-08-16 19:32:18.328125,-120.04
2019-08-16 19:32:18.343750,-125.74
2019-08-16 19:32:18.359375,-128.26
2019-08-16 19:32:18.375000,-126.43
2019-08-16 19:32:18.390625,-118.61
2019-08-16 19:32:18.406250,-104.53
2019-08-16 19:32:18.421875,-85.09
2019-08-16 19:32:18.437500,-61.67
2019-08-16 19:32:18.453125,-35.18
2019-08-16 19:32:18.468750,-6.39
2019-08-16 19:32:18.484375,23.36
2019-08-16 19:32:18.500000,51.28
2019-08-16 19:32:18.515625,72.68
2019-08-16 19:32:18.531250,82.68
2019-08-16 19:32:18.546875,77.34
2019-08-16 19:32:18.562500,55.63
2019-08-16 19:32:18.578125,19.01
2019-08-16 19:32:18.593750,-25.5
2019-08-16 19:32:18.609375,-68.0
2019-08-16 19:32:18.625000,-99.37
2019-08-16 19:32:18.640625,-114.32
2019-08-16 19:32:18.656250,-112.76
2019-08-16 19:32:18.671875,-97.79
2019-08-16 19:32:18.687500,-73.87
2019-08-16 19:32:18.703125,-45.2
2019-08-16 19:32:18.718750,-15.0
2019-08-16 19:32:18.734375,14.08
2019-08-16 19:32:18.750000,38.76
2019-08-16 19:32:18.765625,55.3
2019-08-16 19:32:18.781250,61.5
2019-08-16 19:32:18.796875,57.13
2019-08-16 19:32:18.812500,45.48
2019-08-16 19:32:18.828125,33.14
2019-08-16 19:32:18.843750,28.02
2019-08-16 19:32:18.859375,36.14
2019-08-16 19:32:18.875000,58.98
2019-08-16 19:32:18.890625,91.13
2019-08-16 19:32:18.906250,122.89
2019-08-16 19:32:18.921875,143.72
2019-08-16 19:32:18.937500,146.84
2019-08-16 19:32:18.953125,132.06
2019-08-16 19:32:18.968750,105.12
2019-08-16 19:32:18.984375,74.35
2019-08-16 19:32:19.000000,46.73
2019-08-16 19:32:19.015625,25.64
2019-08-16 19:32:19.031250,10.62
2019-08-16 19:32:19.046875,-0.66
2019-08-16 19:32:19.062500,-10.31
2019-08-16 19:32:19.078125,-18.98
2019-08-16 19:32:19.093750,-25.72
2019-08-16 19:32:19.109375,-29.04
2019-08-16 19:32:19.125000,-28.0
2019-08-16 19:32:19.140625,-22.84
2019-08-16 19:32:19.156250,-15.17
2019-08-16 19:32:19.171875,-7.37
2019-08-16 19:32:19.187500,-1.61
2019-08-16 19:32:19.203125,0.78
2019-08-16 19:32:19.218750,-0.07
2019-08-16 19:32:19.234375,-2.67
2019-08-16 19:32:19.250000,-4.86
2019-08-16 19:32:19.265625,-4.83
2019-08-16 19:32:19.281250,-1.96
2019-08-16 19:32:19.296875,3.16
2019-08-16 19:32:19.312500,9.24
2019-08-16 19:32:19.328125,15.12
2019-08-16 19:32:19.343750,19.96
2019-08-16 19:32:19.359375,22.69
2019-08-16 19:32:19.375000,21.4
2019-08-16 19:32:19.390625,13.14
2019-08-16 19:32:19.406250,-4.83
2019-08-16 19:32:19.421875,-33.1
2019-08-16 19:32:19.437500,-69.24
2019-08-16 19:32:19.453125,-107.77
2019-08-16 19:32:19.468750,-142.47
2019-08-16 19:32:19.484375,-168.77
2019-08-16 19:32:19.500000,-185.34
2019-08-16 19:32:19.515625,-193.81
2019-08-16 19:32:19.531250,-196.99
2019-08-16 19:32:19.546875,-196.44
2019-08-16 19:32:19.562500,-191.37
2019-08-16 19:32:19.578125,-179.26
2019-08-16 19:32:19.593750,-157.6
2019-08-16 19:32:19.609375,-126.65
2019-08-16 19:32:19.625000,-90.46
2019-08-16 19:32:19.640625,-56.14
2019-08-16 19:32:19.656250,-31.18
2019-08-16 19:32:19.671875,-20.53
2019-08-16 19:32:19.687500,-24.52
2019-08-16 19:32:19.703125,-38.79
2019-08-16 19:32:19.718750,-56.09
2019-08-16 19:32:19.734375,-69.09
2019-08-16 19:32:19.750000,-73.07
2019-08-16 19:32:19.765625,-67.28
2019-08-16 19:32:19.781250,-54.5
2019-08-16 19:32:19.796875,-38.33
2019-08-16 19:32:19.812500,-22.34
2019-08-16 19:32:19.828125,-8.05
2019-08-16 19:32:19.843750,5.29
2019-08-16 19:32:19.859375,19.32
2019-08-16 19:32:19.875000,35.24
2019-08-16 19:32:19.890625,52.78
2019-08-16 19:32:19.906250,70.17
2019-08-16 19:32:19.921875,85.0
2019-08-16 19:32:19.937500,95.38
2019-08-16 19:32:19.953125,100.85
2019-08-16 19:32:19.968750,102.68
2019-08-16 19:32:19.984375,103.0
2019-08-16 19:32:20.000000,103.45
2019-08-16 19:32:20.015625,104.17
2019-08-16 19:32:20.031250,103.82
2019-08-16 19:32:20.046875,100.79
2019-08-16 19:32:20.062500,94.22
2019-08-16 19:32:20.078125,84.58
2019-08-16 19:32:20.093750,73.69
2019-08-16 19:32:20.109375,63.73
2019-08-16 19:32:20.125000,56.34
2019-08-16 19:32:20.140625,51.96
2019-08-16 19:32:20.156250,49.77
2019-08-16 19:32:20.171875,48.2
2019-08-16 19:32:20.187500,45.77
2019-08-16 19:32:20.203125,41.71
2019-08-16 19:32:20.218750,36.18
2019-08-16 19:32:20.234375,30.11
2019-08-16 19:32:20.250000,24.71
2019-08-16 19:32:20.265625,20.84
2019-08-16 19:32:20.281250,18.69
2019-08-16 19:32:20.296875,17.78
2019-08-16 19:32:20.312500,17.27
2019-08-16 19:32:20.328125,16.41
2019-08-16 19:32:20.343750,14.83
2019-08-16 19:32:20.359375,12.66
2019-08-16 19:32:20.375000,10.36
2019-08-16 19:32:20.390625,8.53
2019-08-16 19:32:20.406250,7.57
2019-08-16 19:32:20.421875,7.5
2019-08-16 19:32:20.437500,8.05
2019-08-16 19:32:20.453125,8.84
2019-08-16 19:32:20.468750,9.51
2019-08-16 19:32:20.484375,9.94
2019-08-16 19:32:20.500000,10.25
2019-08-16 19:32:20.515625,10.65
2019-08-16 19:32:20.531250,11.33
2019-08-16 19:32:20.546875,12.39
2019-08-16 19:32:20.562500,13.72
2019-08-16 19:32:20.578125,15.17
2019-08-16 19:32:20.593750,16.53
2019-08-16 19:32:20.609375,17.74
2019-08-16 19:32:20.625000,18.89
2019-08-16 19:32:20.640625,20.2
2019-08-16 19:32:20.656250,22.1
2019-08-16 19:32:20.671875,24.91
2019-08-16 19:32:20.687500,28.7
2019-08-16 19:32:20.703125,33.17
2019-08-16 19:32:20.718750,37.82
2019-08-16 19:32:20.734375,42.06
2019-08-16 19:32:20.750000,45.27
2019-08-16 19:32:20.765625,47.09
2019-08-16 19:32:20.781250,46.94
2019-08-16 19:32:20.796875,44.46
2019-08-16 19:32:20.812500,39.16
2019-08-16 19:32:20.828125,30.36
2019-08-16 19:32:20.843750,17.23
2019-08-16 19:32:20.859375,-0.81
2019-08-16 19:32:20.875000,-23.69
2019-08-16 19:32:20.890625,-50.39
2019-08-16 19:32:20.906250,-78.91
2019-08-16 19:32:20.921875,-106.65
2019-08-16 19:32:20.937500,-130.59
2019-08-16 19:32:20.953125,-148.25
2019-08-16 19:32:20.968750,-158.2
2019-08-16 19:32:20.984375,-160.26
2019-08-16 19:32:21.000000,-155.18
2019-08-16 19:32:21.015625,-144.13
2019-08-16 19:32:21.031250,-128.17
2019-08-16 19:32:21.046875,-106.9
2019-08-16 19:32:21.062500,-81.52
2019-08-16 19:32:21.078125,-52.92
2019-08-16 19:32:21.093750,-22.4
2019-08-16 19:32:21.109375,8.16
2019-08-16 19:32:21.125000,36.4
2019-08-16 19:32:21.140625,60.01
2019-08-16 19:32:21.156250,77.07
2019-08-16 19:32:21.171875,86.43
2019-08-16 19:32:21.187500,87.33
2019-08-16 19:32:21.203125,79.55
2019-08-16 19:32:21.218750,64.58
2019-08-16 19:32:21.234375,45.84
2019-08-16 19:32:21.250000,28.39
2019-08-16 19:32:21.265625,17.48
2019-08-16 19:32:21.281250,16.39
2019-08-16 19:32:21.296875,24.91
2019-08-16 19:32:21.312500,38.63
2019-08-16 19:32:21.328125,51.05
2019-08-16 19:32:21.343750,56.49
2019-08-16 19:32:21.359375,52.95
2019-08-16 19:32:21.375000,42.25
2019-08-16 19:32:21.390625,28.67
2019-08-16 19:32:21.406250,16.32
2019-08-16 19:32:21.421875,7.3
2019-08-16 19:32:21.437500,1.41
2019-08-16 19:32:21.453125,-2.82
2019-08-16 19:32:21.468750,-6.52
2019-08-16 19:32:21.484375,-9.7
2019-08-16 19:32:21.500000,-11.33
2019-08-16 19:32:21.515625,-10.59
2019-08-16 19:32:21.531250,-7.61
2019-08-16 19:32:21.546875,-3.64
2019-08-16 19:32:21.562500,-0.34
2019-08-16 19:32:21.578125,0.88
2019-08-16 19:32:21.593750,-0.21
2019-08-16 19:32:21.609375,-2.79
2019-08-16 19:32:21.625000,-5.46
2019-08-16 19:32:21.640625,-6.87
2019-08-16 19:32:21.656250,-6.32
2019-08-16 19:32:21.671875,-4.1
2019-08-16 19:32:21.687500,-1.19
2019-08-16 19:32:21.703125,1.19
2019-08-16 19:32:21.718750,2.18
2019-08-16 19:32:21.734375,1.63
2019-08-16 19:32:21.750000,0.06
2019-08-16 19:32:21.765625,-1.61
2019-08-16 19:32:21.781250,-2.54
2019-08-16 19:32:21.796875,-2.32
2019-08-16 19:32:21.812500,-1.14
2019-08-16 19:32:21.828125,0.39
2019-08-16 19:32:21.843750,1.62
2019-08-16 19:32:21.859375,2.09
2019-08-16 19:32:21.875000,1.78
2019-08-16 19:32:21.890625,1.03
2019-08-16 19:32:21.906250,0.28
2019-08-16 19:32:21.921875,-0.13
2019-08-16 19:32:21.937500,-0.16
2019-08-16 19:32:21.953125,-0.04
2019-08-16 19:32:21.968750,-0.11
2019-08-16 19:32:21.984375,-0.59
2019-08-16 19:32:22.000000,-1.47
2019-08-16 19:32:22.015625,-2.51
2019-08-16 19:32:22.031250,-3.39
2019-08-16 19:32:22.046875,-3.95
2019-08-16 19:32:22.062500,-4.32
2019-08-16 19:32:22.078125,-4.9
2019-08-16 19:32:22.093750,-6.16
2019-08-16 19:32:22.109375,-8.35
2019-08-16 19:32:22.125000,-11.35
2019-08-16 19:32:22.140625,-14.64
2019-08-16 19:32:22.156250,-17.5
2019-08-16 19:32:22.171875,-19.35
2019-08-16 19:32:22.187500,-20.15
2019-08-16 19:32:22.203125,-20.45
2019-08-16 19:32:22.218750,-21.19
2019-08-16 19:32:22.234375,-23.23
2019-08-16 19:32:22.250000,-27.03
2019-08-16 19:32:22.265625,-32.33
2019-08-16 19:32:22.281250,-38.25
2019-08-16 19:32:22.296875,-43.71
2019-08-16 19:32:22.312500,-47.85
2019-08-16 19:32:22.328125,-50.65
2019-08-16 19:32:22.343750,-52.74
2019-08-16 19:32:22.359375,-55.06
2019-08-16 19:32:22.375000,-58.07
2019-08-16 19:32:22.390625,-61.38
2019-08-16 19:32:22.406250,-63.75
2019-08-16 19:32:22.421875,-63.46
2019-08-16 19:32:22.437500,-59.28
2019-08-16 19:32:22.453125,-50.17
2019-08-16 19:32:22.468750,-35.65
2019-08-16 19:32:22.484375,-15.41
2019-08-16 19:32:22.500000,10.66
2019-08-16 19:32:22.515625,41.48
2019-08-16 19:32:22.531250,73.89
2019-08-16 19:32:22.546875,102.1
2019-08-16 19:32:22.562500,119.12
2019-08-16 19:32:22.578125,119.83
2019-08-16 19:32:22.593750,103.63
2019-08-16 19:32:22.609375,75.11
2019-08-16 19:32:22.625000,42.24
2019-08-16 19:32:22.640625,12.77
2019-08-16 19:32:22.656250,-8.5
2019-08-16 19:32:22.671875,-20.47
2019-08-16 19:32:22.687500,-24.58
2019-08-16 19:32:22.703125,-22.73
2019-08-16 19:32:22.718750,-16.17
2019-08-16 19:32:22.734375,-6.02
2019-08-16 19:32:22.750000,5.56
2019-08-16 19:32:22.765625,15.08
2019-08-16 19:32:22.781250,18.69
2019-08-16 19:32:22.796875,14.01
2019-08-16 19:32:22.812500,1.9
2019-08-16 19:32:22.828125,-13.62
2019-08-16 19:32:22.843750,-26.87
2019-08-16 19:32:22.859375,-32.65
2019-08-16 19:32:22.875000,-28.25
2019-08-16 19:32:22.890625,-14.54
2019-08-16 19:32:22.906250,4.08
2019-08-16 19:32:22.921875,21.12
2019-08-16 19:32:22.937500,30.23
2019-08-16 19:32:22.953125,27.9
2019-08-16 19:32:22.968750,15.07
2019-08-16 19:32:22.984375,-2.88
2019-08-16 19:32:23.000000,-18.33
2019-08-16 19:32:23.015625,-24.47
2019-08-16 19:32:23.031250,-17.46
2019-08-16 19:32:23.046875,3.15
2019-08-16 19:32:23.062500,35.0
2019-08-16 19:32:23.078125,73.77
2019-08-16 19:32:23.093750,113.6
2019-08-16 19:32:23.109375,146.99
2019-08-16 19:32:23.125000,165.47
2019-08-16 19:32:23.140625,161.75
2019-08-16 19:32:23.156250,132.54
2019-08-16 19:32:23.171875,80.42
2019-08-16 19:32:23.187500,13.16
2019-08-16 19:32:23.203125,-59.03
2019-08-16 19:32:23.218750,-126.36
2019-08-16 19:32:23.234375,-181.41
2019-08-16 19:32:23.250000,-219.56
2019-08-16 19:32:23.265625,-238.11
2019-08-16 19:32:23.281250,-236.11
2019-08-16 19:32:23.296875,-214.92
2019-08-16 19:32:23.312500,-178.71
2019-08-16 19:32:23.328125,-134.25
2019-08-16 19:32:23.343750,-89.04
2019-08-16 19:32:23.359375,-48.33
2019-08-16 19:32:23.375000,-13.06
2019-08-16 19:32:23.390625,19.89
2019-08-16 19:32:23.406250,54.94
2019-08-16 19:32:23.421875,93.94
2019-08-16 19:32:23.437500,133.42
2019-08-16 19:32:23.453125,165.58
2019-08-16 19:32:23.468750,181.49
2019-08-16 19:32:23.484375,175.53
2019-08-16 19:32:23.500000,148.73
2019-08-16 19:32:23.515625,109.26
2019-08-16 19:32:23.531250,69.71
2019-08-16 19:32:23.546875,42.53
2019-08-16 19:32:23.562500,35.81
2019-08-16 19:32:23.578125,50.62
2019-08-16 19:32:23.593750,81.43
2019-08-16 19:32:23.609375,118.56
2019-08-16 19:32:23.625000,151.65
2019-08-16 19:32:23.640625,172.73
2019-08-16 19:32:23.656250,177.85
2019-08-16 19:32:23.671875,167.19
2019-08-16 19:32:23.687500,144.08
2019-08-16 19:32:23.703125,113.44
2019-08-16 19:32:23.718750,80.41
2019-08-16 19:32:23.734375,49.4
2019-08-16 19:32:23.750000,23.73
2019-08-16 19:32:23.765625,5.72
2019-08-16 19:32:23.781250,-3.19
2019-08-16 19:32:23.796875,-2.52
2019-08-16 19:32:23.812500,6.96
2019-08-16 19:32:23.828125,23.12
2019-08-16 19:32:23.843750,42.67
2019-08-16 19:32:23.859375,61.9
2019-08-16 19:32:23.875000,77.44
2019-08-16 19:32:23.890625,87.13
2019-08-16 19:32:23.906250,90.39
2019-08-16 19:32:23.921875,87.91
2019-08-16 19:32:23.937500,81.06
2019-08-16 19:32:23.953125,71.07
2019-08-16 19:32:23.968750,58.61
2019-08-16 19:32:23.984375,43.68
2019-08-16 19:32:24.000000,25.97
2019-08-16 19:32:24.015625,5.46
2019-08-16 19:32:24.031250,-17.29
2019-08-16 19:32:24.046875,-41.05
2019-08-16 19:32:24.062500,-64.4
2019-08-16 19:32:24.078125,-86.45
2019-08-16 19:32:24.093750,-107.34
2019-08-16 19:32:24.109375,-128.1
2019-08-16 19:32:24.125000,-149.58
2019-08-16 19:32:24.140625,-171.32
2019-08-16 19:32:24.156250,-190.94
2019-08-16 19:32:24.171875,-204.88
2019-08-16 19:32:24.187500,-210.29
2019-08-16 19:32:24.203125,-206.99
2019-08-16 19:32:24.218750,-198.18
2019-08-16 19:32:24.234375,-189.35
2019-08-16 19:32:24.250000,-185.85
2019-08-16 19:32:24.265625,-190.32
2019-08-16 19:32:24.281250,-201.66
2019-08-16 19:32:24.296875,-215.6
2019-08-16 19:32:24.312500,-226.89
2019-08-16 19:32:24.328125,-231.6
2019-08-16 19:32:24.343750,-228.36
2019-08-16 19:32:24.359375,-218.56
2019-08-16 19:32:24.375000,-205.31
2019-08-16 19:32:24.390625,-192.82
2019-08-16 19:32:24.406250,-185.87
2019-08-16 19:32:24.421875,-189.14
2019-08-16 19:32:24.437500,-205.82
2019-08-16 19:32:24.453125,-235.77
2019-08-16 19:32:24.468750,-274.69
2019-08-16 19:32:24.484375,-314.43
2019-08-16 19:32:24.500000,-345.64
2019-08-16 19:32:24.515625,-361.08
2019-08-16 19:32:24.531250,-358.5
2019-08-16 19:32:24.546875,-341.02
2019-08-16 19:32:24.562500,-315.33
2019-08-16 19:32:24.578125,-288.02
2019-08-16 19:32:24.593750,-262.43
2019-08-16 19:32:24.609375,-237.75
2019-08-16 19:32:24.625000,-210.13
2019-08-16 19:32:24.640625,-175.12
2019-08-16 19:32:24.656250,-128.97
2019-08-16 19:32:24.671875,-69.94
2019-08-16 19:32:24.687500,1.43
2019-08-16 19:32:24.703125,82.2
2019-08-16 19:32:24.718750,167.0
2019-08-16 19:32:24.734375,248.39
2019-08-16 19:32:24.750000,318.32
2019-08-16 19:32:24.765625,371.24
2019-08-16 19:32:24.781250,404.68
2019-08-16 19:32:24.796875,422.04
2019-08-16 19:32:24.812500,431.43
2019-08-16 19:32:24.828125,441.68
2019-08-16 19:32:24.843750,457.5
2019-08-16 19:32:24.859375,476.8
2019-08-16 19:32:24.875000,492.11
2019-08-16 19:32:24.890625,495.1
2019-08-16 19:32:24.906250,481.85
2019-08-16 19:32:24.921875,454.31
2019-08-16 19:32:24.937500,418.5
2019-08-16 19:32:24.953125,380.72
2019-08-16 19:32:24.968750,344.28
2019-08-16 19:32:24.984375,309.16
2019-08-16 19:32:25.000000,274.04
2019-08-16 19:32:25.015625,238.8
2019-08-16 19:32:25.031250,205.11
2019-08-16 19:32:25.046875,176.57
2019-08-16 19:32:25.062500,156.11
2019-08-16 19:32:25.078125,144.11
2019-08-16 19:32:25.093750,138.09
2019-08-16 19:32:25.109375,133.72
2019-08-16 19:32:25.125000,126.56
2019-08-16 19:32:25.140625,113.66
2019-08-16 19:32:25.156250,96.39
2019-08-16 19:32:25.171875,76.09
2019-08-16 19:32:25.187500,55.04
2019-08-16 19:32:25.203125,35.1
2019-08-16 19:32:25.218750,16.99
2019-08-16 19:32:25.234375,0.06
2019-08-16 19:32:25.250000,-17.22
2019-08-16 19:32:25.265625,-36.21
2019-08-16 19:32:25.281250,-57.08
2019-08-16 19:32:25.296875,-78.28
2019-08-16 19:32:25.312500,-97.21
2019-08-16 19:32:25.328125,-110.88
2019-08-16 19:32:25.343750,-117.36
2019-08-16 19:32:25.359375,-116.97
2019-08-16 19:32:25.375000,-112.27
2019-08-16 19:32:25.390625,-107.25
2019-08-16 19:32:25.406250,-106.15
2019-08-16 19:32:25.421875,-111.72
2019-08-16 19:32:25.437500,-124.16
2019-08-16 19:32:25.453125,-141.08
2019-08-16 19:32:25.468750,-158.24
2019-08-16 19:32:25.484375,-170.94
2019-08-16 19:32:25.500000,-175.85
2019-08-16 19:32:25.515625,-171.61
2019-08-16 19:32:25.531250,-156.81
2019-08-16 19:32:25.546875,-132.52
2019-08-16 19:32:25.562500,-101.54
2019-08-16 19:32:25.578125,-67.97
2019-08-16 19:32:25.593750,-36.56
2019-08-16 19:32:25.609375,-11.32
2019-08-16 19:32:25.625000,5.68
2019-08-16 19:32:25.640625,15.28
2019-08-16 19:32:25.656250,21.14
2019-08-16 19:32:25.671875,28.02
2019-08-16 19:32:25.687500,40.29
2019-08-16 19:32:25.703125,58.16
2019-08-16 19:32:25.718750,77.11
2019-08-16 19:32:25.734375,89.89
2019-08-16 19:32:25.750000,90.51
2019-08-16 19:32:25.765625,77.55
2019-08-16 19:32:25.781250,54.57
2019-08-16 19:32:25.796875,27.84
2019-08-16 19:32:25.812500,3.11
2019-08-16 19:32:25.828125,-16.87
2019-08-16 19:32:25.843750,-32.2
2019-08-16 19:32:25.859375,-44.1
2019-08-16 19:32:25.875000,-53.3
2019-08-16 19:32:25.890625,-59.3
2019-08-16 19:32:25.906250,-61.05
2019-08-16 19:32:25.921875,-58.18
2019-08-16 19:32:25.937500,-51.6
2019-08-16 19:32:25.953125,-43.29
2019-08-16 19:32:25.968750,-35.93
2019-08-16 19:32:25.984375,-31.44
2019-08-16 19:32:26.000000,-30.43
2019-08-16 19:32:26.015625,-32.04
2019-08-16 19:32:26.031250,-34.54
2019-08-16 19:32:26.046875,-36.15
2019-08-16 19:32:26.062500,-36.01
2019-08-16 19:32:26.078125,-34.39
2019-08-16 19:32:26.093750,-32.4
2019-08-16 19:32:26.109375,-31.57
2019-08-16 19:32:26.125000,-33.05
2019-08-16 19:32:26.140625,-37.1
2019-08-16 19:32:26.156250,-43.08
2019-08-16 19:32:26.171875,-49.84
2019-08-16 19:32:26.187500,-56.36
2019-08-16 19:32:26.203125,-62.24
2019-08-16 19:32:26.218750,-67.88
2019-08-16 19:32:26.234375,-73.99
2019-08-16 19:32:26.250000,-81.51
2019-08-16 19:32:26.265625,-90.91
2019-08-16 19:32:26.281250,-102.08
2019-08-16 19:32:26.296875,-114.4
2019-08-16 19:32:26.312500,-127.16
2019-08-16 19:32:26.328125,-139.99
2019-08-16 19:32:26.343750,-153.12
2019-08-16 19:32:26.359375,-167.25
2019-08-16 19:32:26.375000,-182.94
2019-08-16 19:32:26.390625,-200.37
2019-08-16 19:32:26.406250,-218.95
2019-08-16 19:32:26.421875,-237.28
2019-08-16 19:32:26.437500,-253.58
2019-08-16 19:32:26.453125,-266.12
2019-08-16 19:32:26.468750,-273.79
2019-08-16 19:32:26.484375,-276.25
2019-08-16 19:32:26.500000,-274.83
2019-08-16 19:32:26.515625,-269.75
2019-08-16 19:32:26.531250,-260.68
2019-08-16 19:32:26.546875,-246.56
2019-08-16 19:32:26.562500,-226.08
2019-08-16 19:32:26.578125,-198.36
2019-08-16 19:32:26.593750,-163.59
2019-08-16 19:32:26.609375,-123.49
2019-08-16 19:32:26.625000,-81.07
2019-08-16 19:32:26.640625,-39.66
2019-08-16 19:32:26.656250,-1.81
2019-08-16 19:32:26.671875,31.26
2019-08-16 19:32:26.687500,60.2
2019-08-16 19:32:26.703125,86.9
2019-08-16 19:32:26.718750,113.97
2019-08-16 19:32:26.734375,144.03
2019-08-16 19:32:26.750000,179.47
2019-08-16 19:32:26.765625,221.67
2019-08-16 19:32:26.781250,270.26
2019-08-16 19:32:26.796875,322.15
2019-08-16 19:32:26.812500,369.94
2019-08-16 19:32:26.828125,404.93
2019-08-16 19:32:26.843750,419.64
2019-08-16 19:32:26.859375,410.97
2019-08-16 19:32:26.875000,381.84
2019-08-16 19:32:26.890625,340.38
2019-08-16 19:32:26.906250,296.62
2019-08-16 19:32:26.921875,258.59
2019-08-16 19:32:26.937500,229.69
2019-08-16 19:32:26.953125,208.69
2019-08-16 19:32:26.968750,192.15
2019-08-16 19:32:26.984375,176.93
2019-08-16 19:32:27.000000,161.85
2019-08-16 19:32:27.015625,147.42
2019-08-16 19:32:27.031250,134.37
2019-08-16 19:32:27.046875,122.51
2019-08-16 19:32:27.062500,110.48
2019-08-16 19:32:27.078125,96.72
2019-08-16 19:32:27.093750,80.53
2019-08-16 19:32:27.109375,62.82
2019-08-16 19:32:27.125000,45.52
2019-08-16 19:32:27.140625,30.86
2019-08-16 19:32:27.156250,20.12
2019-08-16 19:32:27.171875,13.26
2019-08-16 19:32:27.187500,8.87
2019-08-16 19:32:27.203125,5.03
2019-08-16 19:32:27.218750,0.14
2019-08-16 19:32:27.234375,-6.46
2019-08-16 19:32:27.250000,-14.19
2019-08-16 19:32:27.265625,-21.73
2019-08-16 19:32:27.281250,-27.64
2019-08-16 19:32:27.296875,-31.06
2019-08-16 19:32:27.312500,-31.66
2019-08-16 19:32:27.328125,-30.46
2019-08-16 19:32:27.343750,-28.78
2019-08-16 19:32:27.359375,-27.72
2019-08-16 19:32:27.375000,-27.74
2019-08-16 19:32:27.390625,-28.57
2019-08-16 19:32:27.406250,-29.49
2019-08-16 19:32:27.421875,-29.7
2019-08-16 19:32:27.437500,-28.71
2019-08-16 19:32:27.453125,-26.53
2019-08-16 19:32:27.468750,-23.64
2019-08-16 19:32:27.484375,-20.64
2019-08-16 19:32:27.500000,-18.02
2019-08-16 19:32:27.515625,-15.96
2019-08-16 19:32:27.531250,-14.35
2019-08-16 19:32:27.546875,-12.89
2019-08-16 19:32:27.562500,-11.22
2019-08-16 19:32:27.578125,-9.13
2019-08-16 19:32:27.593750,-6.67
2019-08-16 19:32:27.609375,-4.01
2019-08-16 19:32:27.625000,-1.42
2019-08-16 19:32:27.640625,0.99
2019-08-16 19:32:27.656250,3.22
2019-08-16 19:32:27.671875,5.38
2019-08-16 19:32:27.687500,7.62
2019-08-16 19:32:27.703125,10.19
2019-08-16 19:32:27.718750,13.24
2019-08-16 19:32:27.734375,16.73
2019-08-16 19:32:27.750000,20.45
2019-08-16 19:32:27.765625,23.99
2019-08-16 19:32:27.781250,26.85
2019-08-16 19:32:27.796875,28.29
2019-08-16 19:32:27.812500,27.61
2019-08-16 19:32:27.828125,23.59
2019-08-16 19:32:27.843750,15.31
2019-08-16 19:32:27.859375,2.11
2019-08-16 19:32:27.875000,-16.21
2019-08-16 19:32:27.890625,-39.22
2019-08-16 19:32:27.906250,-65.87
2019-08-16 19:32:27.921875,-94.25
2019-08-16 19:32:27.937500,-121.95
2019-08-16 19:32:27.953125,-146.38
2019-08-16 19:32:27.968750,-165.06
2019-08-16 19:32:27.984375,-175.95
2019-08-16 19:32:28.000000,-177.72
2019-08-16 19:32:28.015625,-170.08
2019-08-16 19:32:28.031250,-153.07
2019-08-16 19:32:28.046875,-128.93
2019-08-16 19:32:28.062500,-100.36
2019-08-16 19:32:28.078125,-70.18
2019-08-16 19:32:28.093750,-40.97
2019-08-16 19:32:28.109375,-14.88
2019-08-16 19:32:28.125000,6.75
2019-08-16 19:32:28.140625,23.32
2019-08-16 19:32:28.156250,34.92
2019-08-16 19:32:28.171875,42.1
2019-08-16 19:32:28.187500,45.53
2019-08-16 19:32:28.203125,46.17
2019-08-16 19:32:28.218750,45.02
2019-08-16 19:32:28.234375,42.91
