2019-08-15 10:05:29.000000,-0.0
2019-08-15 10:05:29.015625,-0.0
2019-08-15 10:05:29.031250,-0.0
2019-08-15 10:05:29.046875,-0.0
2019-08-15 10:05:29.062500,-0.0
2019-08-15 10:05:29.078125,-0.0
2019-08-15 10:05:29.093750,-0.0
2019-08-15 10:05:29.109375,-0.0
2019-08-15 10:05:29.125000,-0.0
2019-08-15 10:05:29.140625,-0.0
2019-08-15 10:05:29.156250,0.0
2019-08-15 10:05:29.171875,0.01
2019-08-15 10:05:29.187500,0.01
2019-08-15 10:05:29.203125,-0.0
2019-08-15 10:05:29.218750,-0.03
2019-08-15 10:05:29.234375,-0.05
2019-08-15 10:05:29.250000,-0.05
2019-08-15 10:05:29.265625,0.0
2019-08-15 10:05:29.281250,0.13
2019-08-15 10:05:29.296875,0.36
2019-08-15 10:05:29.312500,0.66
2019-08-15 10:05:29.328125,1.01
2019-08-15 10:05:29.343750,1.37
2019-08-15 10:05:29.359375,1.72
2019-08-15 10:05:29.375000,2.06
2019-08-15 10:05:29.390625,2.4
2019-08-15 10:05:29.406250,2.79
2019-08-15 10:05:29.421875,3.24
2019-08-15 10:05:29.437500,3.8
2019-08-15 10:05:29.453125,4.42
2019-08-15 10:05:29.468750,5.07
2019-08-15 10:05:29.484375,5.69
2019-08-15 10:05:29.500000,6.25
2019-08-15 10:05:29.515625,6.76
2019-08-15 10:05:29.531250,7.3
2019-08-15 10:05:29.546875,7.93
2019-08-15 10:05:29.562500,8.7
2019-08-15 10:05:29.578125,9.73
2019-08-15 10:05:29.593750,10.92
2019-08-15 10:05:29.609375,12.16
2019-08-15 10:05:29.625000,13.35
2019-08-15 10:05:29.640625,14.43
2019-08-15 10:05:29.656250,15.44
2019-08-15 10:05:29.671875,16.55
2019-08-15 10:05:29.687500,17.98
2019-08-15 10:05:29.703125,19.86
2019-08-15 10:05:29.718750,22.42
2019-08-15 10:05:29.734375,25.46
2019-08-15 10:05:29.750000,28.73
2019-08-15 10:05:29.765625,31.92
2019-08-15 10:05:29.781250,34.86
2019-08-15 10:05:29.796875,37.65
2019-08-15 10:05:29.812500,40.59
2019-08-15 10:05:29.828125,44.15
2019-08-15 10:05:29.843750,48.63
2019-08-15 10:05:29.859375,54.44
2019-08-15 10:05:29.875000,61.22
2019-08-15 10:05:29.890625,68.46
2019-08-15 10:05:29.906250,75.57
2019-08-15 10:05:29.921875,82.22
2019-08-15 10:05:29.937500,88.49
2019-08-15 10:05:29.953125,94.9
2019-08-15 10:05:29.968750,102.16
2019-08-15 10:05:29.984375,110.84
2019-08-15 10:05:30.000000,121.5
2019-08-15 10:05:30.015625,133.63
2019-08-15 10:05:30.031250,146.45
2019-08-15 10:05:30.046875,159.05
2019-08-15 10:05:30.062500,170.9
2019-08-15 10:05:30.078125,182.05
2019-08-15 10:05:30.093750,193.17
2019-08-15 10:05:30.109375,205.65
2019-08-15 10:05:30.125000,218.22
2019-08-15 10:05:30.140625,233.17
2019-08-15 10:05:30.156250,251.13
2019-08-15 10:05:30.171875,272.18
2019-08-15 10:05:30.187500,295.09
2019-08-15 10:05:30.203125,316.95
2019-08-15 10:05:30.218750,333.47
2019-08-15 10:05:30.234375,340.03
2019-08-15 10:05:30.250000,333.33
2019-08-15 10:05:30.265625,312.54
2019-08-15 10:05:30.281250,280.06
2019-08-15 10:05:30.296875,239.75
2019-08-15 10:05:30.312500,195.9
2019-08-15 10:05:30.328125,151.7
2019-08-15 10:05:30.343750,108.68
2019-08-15 10:05:30.359375,67.1
2019-08-15 10:05:30.375000,26.86
2019-08-15 10:05:30.390625,-11.73
2019-08-15 10:05:30.406250,-47.9
2019-08-15 10:05:30.421875,-80.34
2019-08-15 10:05:30.437500,-108.43
2019-08-15 10:05:30.453125,-131.93
2019-08-15 10:05:30.468750,-151.26
2019-08-15 10:05:30.484375,-166.83
2019-08-15 10:05:30.500000,-178.72
2019-08-15 10:05:30.515625,-186.7
2019-08-15 10:05:30.531250,-190.35
2019-08-15 10:05:30.546875,-189.65
2019-08-15 10:05:30.562500,-184.88
2019-08-15 10:05:30.578125,-177.17
2019-08-15 10:05:30.593750,-167.89
2019-08-15 10:05:30.609375,-158.44
2019-08-15 10:05:30.625000,-149.78
2019-08-15 10:05:30.640625,-142.33
2019-08-15 10:05:30.656250,-136.0
2019-08-15 10:05:30.671875,-130.06
2019-08-15 10:05:30.687500,-124.0
2019-08-15 10:05:30.703125,-117.54
2019-08-15 10:05:30.718750,-110.9
2019-08-15 10:05:30.734375,-104.51
2019-08-15 10:05:30.750000,-98.79
2019-08-15 10:05:30.765625,-93.91
2019-08-15 10:05:30.781250,-89.76
2019-08-15 10:05:30.796875,-85.99
2019-08-15 10:05:30.812500,-82.28
2019-08-15 10:05:30.828125,-78.52
2019-08-15 10:05:30.843750,-74.83
2019-08-15 10:05:30.859375,-71.58
2019-08-15 10:05:30.875000,-69.09
2019-08-15 10:05:30.890625,-67.54
2019-08-15 10:05:30.906250,-66.78
2019-08-15 10:05:30.921875,-66.45
2019-08-15 10:05:30.937500,-66.16
2019-08-15 10:05:30.953125,-65.7
2019-08-15 10:05:30.968750,-65.26
2019-08-15 10:05:30.984375,-65.29
2019-08-15 10:05:31.000000,-66.31
2019-08-15 10:05:31.015625,-68.59
2019-08-15 10:05:31.031250,-72.01
2019-08-15 10:05:31.046875,-75.96
2019-08-15 10:05:31.062500,-79.65
2019-08-15 10:05:31.078125,-82.51
2019-08-15 10:05:31.093750,-84.5
2019-08-15 10:05:31.109375,-86.26
2019-08-15 10:05:31.125000,-88.86
2019-08-15 10:05:31.140625,-93.36
2019-08-15 10:05:31.156250,-100.26
2019-08-15 10:05:31.171875,-109.26
2019-08-15 10:05:31.187500,-119.33
2019-08-15 10:05:31.203125,-129.17
2019-08-15 10:05:31.218750,-137.87
2019-08-15 10:05:31.234375,-145.3
2019-08-15 10:05:31.250000,-152.25
2019-08-15 10:05:31.265625,-159.95
2019-08-15 10:05:31.281250,-169.64
2019-08-15 10:05:31.296875,-182.05
2019-08-15 10:05:31.312500,-197.26
2019-08-15 10:05:31.328125,-214.71
2019-08-15 10:05:31.343750,-233.17
2019-08-15 10:05:31.359375,-250.85
2019-08-15 10:05:31.375000,-265.3
2019-08-15 10:05:31.390625,-273.71
2019-08-15 10:05:31.406250,-273.55
2019-08-15 10:05:31.421875,-263.51
2019-08-15 10:05:31.437500,-244.26
2019-08-15 10:05:31.453125,-218.65
2019-08-15 10:05:31.468750,-190.81
2019-08-15 10:05:31.484375,-164.85
2019-08-15 10:05:31.500000,-143.33
2019-08-15 10:05:31.515625,-126.63
2019-08-15 10:05:31.531250,-113.24
2019-08-15 10:05:31.546875,-100.98
2019-08-15 10:05:31.562500,-88.3
2019-08-15 10:05:31.578125,-75.05
2019-08-15 10:05:31.593750,-62.23
2019-08-15 10:05:31.609375,-51.13
2019-08-15 10:05:31.625000,-42.11
2019-08-15 10:05:31.640625,-34.26
2019-08-15 10:05:31.656250,-25.79
2019-08-15 10:05:31.671875,-15.29
2019-08-15 10:05:31.687500,-2.86
2019-08-15 10:05:31.703125,9.48
2019-08-15 10:05:31.718750,18.51
2019-08-15 10:05:31.734375,21.65
2019-08-15 10:05:31.750000,18.62
2019-08-15 10:05:31.765625,12.15
2019-08-15 10:05:31.781250,6.99
2019-08-15 10:05:31.796875,7.63
2019-08-15 10:05:31.812500,15.9
2019-08-15 10:05:31.828125,29.81
2019-08-15 10:05:31.843750,44.42
2019-08-15 10:05:31.859375,54.28
2019-08-15 10:05:31.875000,56.25
2019-08-15 10:05:31.890625,51.06
2019-08-15 10:05:31.906250,42.73
2019-08-15 10:05:31.921875,36.26
2019-08-15 10:05:31.937500,34.89
2019-08-15 10:05:31.953125,38.42
2019-08-15 10:05:31.968750,43.75
2019-08-15 10:05:31.984375,46.83
2019-08-15 10:05:32.000000,45.35
2019-08-15 10:05:32.015625,40.08
2019-08-15 10:05:32.031250,34.34
2019-08-15 10:05:32.046875,31.87
2019-08-15 10:05:32.062500,34.41
2019-08-15 10:05:32.078125,40.44
2019-08-15 10:05:32.093750,45.97
2019-08-15 10:05:32.109375,46.73
2019-08-15 10:05:32.125000,40.75
2019-08-15 10:05:32.140625,29.65
2019-08-15 10:05:32.156250,17.81
2019-08-15 10:05:32.171875,10.0
2019-08-15 10:05:32.187500,8.8
2019-08-15 10:05:32.203125,13.32
2019-08-15 10:05:32.218750,19.89
2019-08-15 10:05:32.234375,24.09
2019-08-15 10:05:32.250000,23.23
2019-08-15 10:05:32.265625,17.56
2019-08-15 10:05:32.281250,9.74
2019-08-15 10:05:32.296875,3.2
2019-08-15 10:05:32.312500,0.05
2019-08-15 10:05:32.328125,0.04
2019-08-15 10:05:32.343750,0.94
2019-08-15 10:05:32.359375,0.01
2019-08-15 10:05:32.375000,-4.21
2019-08-15 10:05:32.390625,-10.94
2019-08-15 10:05:32.406250,-17.6
2019-08-15 10:05:32.421875,-21.25
2019-08-15 10:05:32.437500,-20.43
2019-08-15 10:05:32.453125,-16.25
2019-08-15 10:05:32.468750,-11.81
2019-08-15 10:05:32.484375,-10.73
2019-08-15 10:05:32.500000,-15.02
2019-08-15 10:05:32.515625,-23.78
2019-08-15 10:05:32.531250,-33.54
2019-08-15 10:05:32.546875,-39.91
2019-08-15 10:05:32.562500,-39.92
2019-08-15 10:05:32.578125,-33.56
2019-08-15 10:05:32.593750,-23.66
2019-08-15 10:05:32.609375,-14.35
2019-08-15 10:05:32.625000,-8.77
2019-08-15 10:05:32.640625,-7.43
2019-08-15 10:05:32.656250,-8.33
2019-08-15 10:05:32.671875,-8.34
2019-08-15 10:05:32.687500,-5.35
2019-08-15 10:05:32.703125,0.45
2019-08-15 10:05:32.718750,6.64
2019-08-15 10:05:32.734375,10.08
2019-08-15 10:05:32.750000,8.87
2019-08-15 10:05:32.765625,3.61
2019-08-15 10:05:32.781250,-2.87
2019-08-15 10:05:32.796875,-7.01
2019-08-15 10:05:32.812500,-6.53
2019-08-15 10:05:32.828125,-1.7
2019-08-15 10:05:32.843750,4.94
2019-08-15 10:05:32.859375,9.93
2019-08-15 10:05:32.875000,10.97
2019-08-15 10:05:32.890625,8.07
2019-08-15 10:05:32.906250,3.54
2019-08-15 10:05:32.921875,0.46
2019-08-15 10:05:32.937500,0.89
2019-08-15 10:05:32.953125,4.61
2019-08-15 10:05:32.968750,9.33
2019-08-15 10:05:32.984375,12.11
2019-08-15 10:05:33.000000,11.35
2019-08-15 10:05:33.015625,7.94
2019-08-15 10:05:33.031250,4.89
2019-08-15 10:05:33.046875,5.76
2019-08-15 10:05:33.062500,12.39
2019-08-15 10:05:33.078125,23.64
2019-08-15 10:05:33.093750,35.82
2019-08-15 10:05:33.109375,44.52
2019-08-15 10:05:33.125000,46.94
2019-08-15 10:05:33.140625,43.53
2019-08-15 10:05:33.156250,37.68
2019-08-15 10:05:33.171875,33.91
2019-08-15 10:05:33.187500,35.35
2019-08-15 10:05:33.203125,42.11
2019-08-15 10:05:33.218750,51.32
2019-08-15 10:05:33.234375,58.93
2019-08-15 10:05:33.250000,62.07
2019-08-15 10:05:33.265625,60.76
2019-08-15 10:05:33.281250,57.89
2019-08-15 10:05:33.296875,57.36
2019-08-15 10:05:33.312500,61.74
2019-08-15 10:05:33.328125,70.6
2019-08-15 10:05:33.343750,80.58
2019-08-15 10:05:33.359375,87.21
2019-08-15 10:05:33.375000,87.48
2019-08-15 10:05:33.390625,81.51
2019-08-15 10:05:33.406250,72.68
2019-08-15 10:05:33.421875,65.7
2019-08-15 10:05:33.437500,64.12
2019-08-15 10:05:33.453125,68.47
2019-08-15 10:05:33.468750,75.97
2019-08-15 10:05:33.484375,82.28
2019-08-15 10:05:33.500000,83.99
2019-08-15 10:05:33.515625,80.41
2019-08-15 10:05:33.531250,73.77
2019-08-15 10:05:33.546875,67.74
2019-08-15 10:05:33.562500,65.11
2019-08-15 10:05:33.578125,66.05
2019-08-15 10:05:33.593750,68.19
2019-08-15 10:05:33.609375,68.1
2019-08-15 10:05:33.625000,63.56
2019-08-15 10:05:33.640625,55.08
2019-08-15 10:05:33.656250,45.78
2019-08-15 10:05:33.671875,39.81
2019-08-15 10:05:33.687500,39.9
2019-08-15 10:05:33.703125,45.87
2019-08-15 10:05:33.718750,54.45
2019-08-15 10:05:33.734375,60.98
2019-08-15 10:05:33.750000,61.82
2019-08-15 10:05:33.765625,56.04
2019-08-15 10:05:33.781250,45.95
2019-08-15 10:05:33.796875,35.69
2019-08-15 10:05:33.812500,29.12
2019-08-15 10:05:33.828125,27.95
2019-08-15 10:05:33.843750,31.06
2019-08-15 10:05:33.859375,35.47
2019-08-15 10:05:33.875000,38.11
2019-08-15 10:05:33.890625,37.48
2019-08-15 10:05:33.906250,34.26
2019-08-15 10:05:33.921875,30.67
2019-08-15 10:05:33.937500,28.83
2019-08-15 10:05:33.953125,29.42
2019-08-15 10:05:33.968750,31.02
2019-08-15 10:05:33.984375,30.91
2019-08-15 10:05:34.000000,26.82
2019-08-15 10:05:34.015625,18.66
2019-08-15 10:05:34.031250,9.2
2019-08-15 10:05:34.046875,3.22
2019-08-15 10:05:34.062500,5.21
2019-08-15 10:05:34.078125,16.9
2019-08-15 10:05:34.093750,36.11
2019-08-15 10:05:34.109375,57.49
2019-08-15 10:05:34.125000,74.96
2019-08-15 10:05:34.140625,84.39
2019-08-15 10:05:34.156250,85.21
2019-08-15 10:05:34.171875,79.88
2019-08-15 10:05:34.187500,71.87
2019-08-15 10:05:34.203125,63.54
2019-08-15 10:05:34.218750,54.94
2019-08-15 10:05:34.234375,44.6
2019-08-15 10:05:34.250000,31.32
2019-08-15 10:05:34.265625,15.77
2019-08-15 10:05:34.281250,0.73
2019-08-15 10:05:34.296875,-10.3
2019-08-15 10:05:34.312500,-14.98
2019-08-15 10:05:34.328125,-13.52
2019-08-15 10:05:34.343750,-8.51
2019-08-15 10:05:34.359375,-3.41
2019-08-15 10:05:34.375000,-0.65
2019-08-15 10:05:34.390625,-0.33
2019-08-15 10:05:34.406250,-0.48
2019-08-15 10:05:34.421875,1.58
2019-08-15 10:05:34.437500,7.24
2019-08-15 10:05:34.453125,15.34
2019-08-15 10:05:34.468750,22.49
2019-08-15 10:05:34.484375,24.94
2019-08-15 10:05:34.500000,20.84
2019-08-15 10:05:34.515625,12.3
2019-08-15 10:05:34.531250,5.2
2019-08-15 10:05:34.546875,7.16
2019-08-15 10:05:34.562500,23.86
2019-08-15 10:05:34.578125,55.59
2019-08-15 10:05:34.593750,95.42
2019-08-15 10:05:34.609375,130.41
2019-08-15 10:05:34.625000,145.95
2019-08-15 10:05:34.640625,131.47
2019-08-15 10:05:34.656250,85.47
2019-08-15 10:05:34.671875,17.28
2019-08-15 10:05:34.687500,-55.67
2019-08-15 10:05:34.703125,-114.38
2019-08-15 10:05:34.718750,-145.73
2019-08-15 10:05:34.734375,-147.31
2019-08-15 10:05:34.750000,-127.57
2019-08-15 10:05:34.765625,-100.94
2019-08-15 10:05:34.781250,-81.09
2019-08-15 10:05:34.796875,-75.31
2019-08-15 10:05:34.812500,-83.49
2019-08-15 10:05:34.828125,-100.82
2019-08-15 10:05:34.843750,-122.09
2019-08-15 10:05:34.859375,-144.76
2019-08-15 10:05:34.875000,-168.59
2019-08-15 10:05:34.890625,-192.92
2019-08-15 10:05:34.906250,-214.02
2019-08-15 10:05:34.921875,-225.07
2019-08-15 10:05:34.937500,-219.56
2019-08-15 10:05:34.953125,-196.07
2019-08-15 10:05:34.968750,-160.99
2019-08-15 10:05:34.984375,-126.98
2019-08-15 10:05:35.000000,-107.77
2019-08-15 10:05:35.015625,-111.51
2019-08-15 10:05:35.031250,-136.8
2019-08-15 10:05:35.046875,-173.33
2019-08-15 10:05:35.062500,-206.71
2019-08-15 10:05:35.078125,-224.65
2019-08-15 10:05:35.093750,-221.43
2019-08-15 10:05:35.109375,-198.83
2019-08-15 10:05:35.125000,-163.25
2019-08-15 10:05:35.140625,-121.92
2019-08-15 10:05:35.156250,-80.04
2019-08-15 10:05:35.171875,-40.41
2019-08-15 10:05:35.187500,-4.62
2019-08-15 10:05:35.203125,25.24
2019-08-15 10:05:35.218750,46.31
2019-08-15 10:05:35.234375,56.22
2019-08-15 10:05:35.250000,54.95
2019-08-15 10:05:35.265625,46.05
2019-08-15 10:05:35.281250,35.97
2019-08-15 10:05:35.296875,32.01
2019-08-15 10:05:35.312500,39.04
2019-08-15 10:05:35.328125,57.24
2019-08-15 10:05:35.343750,82.01
2019-08-15 10:05:35.359375,105.77
2019-08-15 10:05:35.375000,121.47
2019-08-15 10:05:35.390625,125.69
2019-08-15 10:05:35.406250,119.66
2019-08-15 10:05:35.421875,108.25
2019-08-15 10:05:35.437500,97.09
2019-08-15 10:05:35.453125,89.83
2019-08-15 10:05:35.468750,87.13
2019-08-15 10:05:35.484375,87.17
2019-08-15 10:05:35.500000,87.44
2019-08-15 10:05:35.515625,85.96
2019-08-15 10:05:35.531250,81.82
2019-08-15 10:05:35.546875,75.21
2019-08-15 10:05:35.562500,67.1
2019-08-15 10:05:35.578125,58.57
2019-08-15 10:05:35.593750,49.99
2019-08-15 10:05:35.609375,40.27
2019-08-15 10:05:35.625000,26.82
2019-08-15 10:05:35.640625,6.62
2019-08-15 10:05:35.656250,-21.66
2019-08-15 10:05:35.671875,-55.96
2019-08-15 10:05:35.687500,-90.61
2019-08-15 10:05:35.703125,-118.4
2019-08-15 10:05:35.718750,-133.88
2019-08-15 10:05:35.734375,-136.25
2019-08-15 10:05:35.750000,-129.32
2019-08-15 10:05:35.765625,-119.23
2019-08-15 10:05:35.781250,-110.6
2019-08-15 10:05:35.796875,-103.76
2019-08-15 10:05:35.812500,-94.68
2019-08-15 10:05:35.828125,-77.37
2019-08-15 10:05:35.843750,-47.23
2019-08-15 10:05:35.859375,-3.48
2019-08-15 10:05:35.875000,50.48
2019-08-15 10:05:35.890625,108.36
2019-08-15 10:05:35.906250,162.83
2019-08-15 10:05:35.921875,207.53
2019-08-15 10:05:35.937500,238.45
2019-08-15 10:05:35.953125,254.31
2019-08-15 10:05:35.968750,256.49
2019-08-15 10:05:35.984375,247.8
2019-08-15 10:05:36.000000,231.64
2019-08-15 10:05:36.015625,211.08
2019-08-15 10:05:36.031250,188.64
2019-08-15 10:05:36.046875,166.41
2019-08-15 10:05:36.062500,146.17
2019-08-15 10:05:36.078125,129.18
2019-08-15 10:05:36.093750,115.52
2019-08-15 10:05:36.109375,103.33
2019-08-15 10:05:36.125000,88.67
2019-08-15 10:05:36.140625,66.3
2019-08-15 10:05:36.156250,31.8
2019-08-15 10:05:36.171875,-15.82
2019-08-15 10:05:36.187500,-72.23
2019-08-15 10:05:36.203125,-127.68
2019-08-15 10:05:36.218750,-169.35
2019-08-15 10:05:36.234375,-186.01
2019-08-15 10:05:36.250000,-172.28
2019-08-15 10:05:36.265625,-131.26
2019-08-15 10:05:36.281250,-73.53
2019-08-15 10:05:36.296875,-13.38
2019-08-15 10:05:36.312500,36.18
2019-08-15 10:05:36.328125,67.06
2019-08-15 10:05:36.343750,77.23
2019-08-15 10:05:36.359375,69.29
2019-08-15 10:05:36.375000,48.09
2019-08-15 10:05:36.390625,18.77
2019-08-15 10:05:36.406250,-13.93
2019-08-15 10:05:36.421875,-45.42
2019-08-15 10:05:36.437500,-71.11
2019-08-15 10:05:36.453125,-87.05
2019-08-15 10:05:36.468750,-90.99
2019-08-15 10:05:36.484375,-83.24
2019-08-15 10:05:36.500000,-66.65
2019-08-15 10:05:36.515625,-45.67
2019-08-15 10:05:36.531250,-24.81
2019-08-15 10:05:36.546875,-7.34
2019-08-15 10:05:36.562500,5.15
2019-08-15 10:05:36.578125,12.54
2019-08-15 10:05:36.593750,15.58
2019-08-15 10:05:36.609375,15.39
2019-08-15 10:05:36.625000,13.24
2019-08-15 10:05:36.640625,10.47
2019-08-15 10:05:36.656250,8.32
2019-08-15 10:05:36.671875,7.73
2019-08-15 10:05:36.687500,9.04
2019-08-15 10:05:36.703125,11.94
2019-08-15 10:05:36.718750,15.65
2019-08-15 10:05:36.734375,19.31
2019-08-15 10:05:36.750000,22.51
2019-08-15 10:05:36.765625,25.44
2019-08-15 10:05:36.781250,28.7
2019-08-15 10:05:36.796875,32.88
2019-08-15 10:05:36.812500,38.19
2019-08-15 10:05:36.828125,44.13
2019-08-15 10:05:36.843750,49.8
2019-08-15 10:05:36.859375,54.3
2019-08-15 10:05:36.875000,57.29
2019-08-15 10:05:36.890625,59.27
2019-08-15 10:05:36.906250,61.44
2019-08-15 10:05:36.921875,65.18
2019-08-15 10:05:36.937500,71.4
2019-08-15 10:05:36.953125,80.17
2019-08-15 10:05:36.968750,90.73
2019-08-15 10:05:36.984375,102.06
2019-08-15 10:05:37.000000,113.4
2019-08-15 10:05:37.015625,124.55
2019-08-15 10:05:37.031250,135.72
2019-08-15 10:05:37.046875,146.94
2019-08-15 10:05:37.062500,157.46
2019-08-15 10:05:37.078125,165.86
2019-08-15 10:05:37.093750,170.56
2019-08-15 10:05:37.109375,170.59
2019-08-15 10:05:37.125000,165.97
2019-08-15 10:05:37.140625,157.69
2019-08-15 10:05:37.156250,146.87
2019-08-15 10:05:37.171875,134.01
2019-08-15 10:05:37.187500,118.67
2019-08-15 10:05:37.203125,99.53
2019-08-15 10:05:37.218750,74.77
2019-08-15 10:05:37.234375,42.38
2019-08-15 10:05:37.250000,0.72
2019-08-15 10:05:37.265625,-50.69
2019-08-15 10:05:37.281250,-110.19
2019-08-15 10:05:37.296875,-173.39
2019-08-15 10:05:37.312500,-233.56
2019-08-15 10:05:37.328125,-283.34
2019-08-15 10:05:37.343750,-317.27
2019-08-15 10:05:37.359375,-333.82
2019-08-15 10:05:37.375000,-335.84
2019-08-15 10:05:37.390625,-329.05
2019-08-15 10:05:37.406250,-319.5
2019-08-15 10:05:37.421875,-311.36
2019-08-15 10:05:37.437500,-306.01
2019-08-15 10:05:37.453125,-302.83
2019-08-15 10:05:37.468750,-300.54
2019-08-15 10:05:37.484375,-298.0
2019-08-15 10:05:37.500000,-294.14
2019-08-15 10:05:37.515625,-286.83
2019-08-15 10:05:37.531250,-272.08
2019-08-15 10:05:37.546875,-244.36
2019-08-15 10:05:37.562500,-198.62
2019-08-15 10:05:37.578125,-133.14
2019-08-15 10:05:37.593750,-51.88
2019-08-15 10:05:37.609375,35.39
2019-08-15 10:05:37.625000,115.28
2019-08-15 10:05:37.640625,175.21
2019-08-15 10:05:37.656250,207.68
2019-08-15 10:05:37.671875,212.63
2019-08-15 10:05:37.687500,196.73
2019-08-15 10:05:37.703125,170.28
2019-08-15 10:05:37.718750,143.33
2019-08-15 10:05:37.734375,122.87
2019-08-15 10:05:37.750000,111.99
2019-08-15 10:05:37.765625,110.71
2019-08-15 10:05:37.781250,117.28
2019-08-15 10:05:37.796875,129.3
2019-08-15 10:05:37.812500,144.07
2019-08-15 10:05:37.828125,158.82
2019-08-15 10:05:37.843750,170.83
2019-08-15 10:05:37.859375,177.8
2019-08-15 10:05:37.875000,177.96
2019-08-15 10:05:37.890625,169.81
2019-08-15 10:05:37.906250,151.67
2019-08-15 10:05:37.921875,121.85
2019-08-15 10:05:37.937500,79.78
2019-08-15 10:05:37.953125,27.47
2019-08-15 10:05:37.968750,-29.44
2019-08-15 10:05:37.984375,-82.23
2019-08-15 10:05:38.000000,-121.55
2019-08-15 10:05:38.015625,-140.38
2019-08-15 10:05:38.031250,-136.41
2019-08-15 10:05:38.046875,-112.64
2019-08-15 10:05:38.062500,-76.0
2019-08-15 10:05:38.078125,-34.94
2019-08-15 10:05:38.093750,2.87
2019-08-15 10:05:38.109375,32.33
2019-08-15 10:05:38.125000,51.41
2019-08-15 10:05:38.140625,60.88
2019-08-15 10:05:38.156250,63.47
2019-08-15 10:05:38.171875,62.77
2019-08-15 10:05:38.187500,62.16
2019-08-15 10:05:38.203125,63.84
2019-08-15 10:05:38.218750,68.2
2019-08-15 10:05:38.234375,73.62
2019-08-15 10:05:38.250000,77.39
2019-08-15 10:05:38.265625,77.0
2019-08-15 10:05:38.281250,71.29
2019-08-15 10:05:38.296875,60.97
2019-08-15 10:05:38.312500,48.1
2019-08-15 10:05:38.328125,35.04
2019-08-15 10:05:38.343750,23.34
2019-08-15 10:05:38.359375,13.23
2019-08-15 10:05:38.375000,4.1
2019-08-15 10:05:38.390625,-4.62
2019-08-15 10:05:38.406250,-12.53
2019-08-15 10:05:38.421875,-18.05
2019-08-15 10:05:38.437500,-19.16
2019-08-15 10:05:38.453125,-14.74
2019-08-15 10:05:38.468750,-5.47
2019-08-15 10:05:38.484375,6.26
2019-08-15 10:05:38.500000,17.38
2019-08-15 10:05:38.515625,25.62
2019-08-15 10:05:38.531250,30.28
2019-08-15 10:05:38.546875,31.92
2019-08-15 10:05:38.562500,31.2
2019-08-15 10:05:38.578125,27.78
2019-08-15 10:05:38.593750,20.18
2019-08-15 10:05:38.609375,6.97
2019-08-15 10:05:38.625000,-11.42
2019-08-15 10:05:38.640625,-31.66
2019-08-15 10:05:38.656250,-47.89
2019-08-15 10:05:38.671875,-53.94
2019-08-15 10:05:38.687500,-46.16
2019-08-15 10:05:38.703125,-25.31
2019-08-15 10:05:38.718750,3.46
2019-08-15 10:05:38.734375,32.61
2019-08-15 10:05:38.750000,55.63
2019-08-15 10:05:38.765625,69.84
2019-08-15 10:05:38.781250,77.32
2019-08-15 10:05:38.796875,83.39
2019-08-15 10:05:38.812500,93.37
2019-08-15 10:05:38.828125,109.26
2019-08-15 10:05:38.843750,128.32
2019-08-15 10:05:38.859375,144.12
2019-08-15 10:05:38.875000,149.68
2019-08-15 10:05:38.890625,140.8
2019-08-15 10:05:38.906250,118.05
2019-08-15 10:05:38.921875,86.32
2019-08-15 10:05:38.937500,52.38
2019-08-15 10:05:38.953125,21.87
2019-08-15 10:05:38.968750,-2.7
2019-08-15 10:05:38.984375,-22.2
2019-08-15 10:05:39.000000,-39.46
2019-08-15 10:05:39.015625,-57.56
2019-08-15 10:05:39.031250,-78.99
2019-08-15 10:05:39.046875,-105.73
2019-08-15 10:05:39.062500,-139.54
2019-08-15 10:05:39.078125,-181.47
2019-08-15 10:05:39.093750,-230.62
2019-08-15 10:05:39.109375,-282.94
2019-08-15 10:05:39.125000,-331.23
2019-08-15 10:05:39.140625,-367.06
2019-08-15 10:05:39.156250,-383.72
2019-08-15 10:05:39.171875,-378.88
2019-08-15 10:05:39.187500,-355.39
2019-08-15 10:05:39.203125,-319.81
2019-08-15 10:05:39.218750,-279.55
2019-08-15 10:05:39.234375,-240.24
2019-08-15 10:05:39.250000,-204.47
2019-08-15 10:05:39.265625,-172.08
2019-08-15 10:05:39.281250,-141.37
2019-08-15 10:05:39.296875,-110.26
2019-08-15 10:05:39.312500,-77.13
2019-08-15 10:05:39.328125,-41.26
2019-08-15 10:05:39.343750,-3.29
2019-08-15 10:05:39.359375,34.59
2019-08-15 10:05:39.375000,68.87
2019-08-15 10:05:39.390625,95.61
2019-08-15 10:05:39.406250,112.01
2019-08-15 10:05:39.421875,117.53
2019-08-15 10:05:39.437500,114.03
2019-08-15 10:05:39.453125,105.0
2019-08-15 10:05:39.468750,94.15
2019-08-15 10:05:39.484375,84.23
2019-08-15 10:05:39.500000,76.63
2019-08-15 10:05:39.515625,71.72
2019-08-15 10:05:39.531250,69.39
2019-08-15 10:05:39.546875,69.26
2019-08-15 10:05:39.562500,70.54
2019-08-15 10:05:39.578125,71.7
2019-08-15 10:05:39.593750,70.7
2019-08-15 10:05:39.609375,65.85
2019-08-15 10:05:39.625000,56.8
2019-08-15 10:05:39.640625,45.21
2019-08-15 10:05:39.656250,34.45
2019-08-15 10:05:39.671875,28.27
2019-08-15 10:05:39.687500,29.0
2019-08-15 10:05:39.703125,36.1
2019-08-15 10:05:39.718750,46.13
2019-08-15 10:05:39.734375,54.0
2019-08-15 10:05:39.750000,55.38
2019-08-15 10:05:39.765625,48.9
2019-08-15 10:05:39.781250,36.96
2019-08-15 10:05:39.796875,24.8
2019-08-15 10:05:39.812500,17.89
2019-08-15 10:05:39.828125,19.21
2019-08-15 10:05:39.843750,27.73
2019-08-15 10:05:39.859375,38.87
2019-08-15 10:05:39.875000,46.8
2019-08-15 10:05:39.890625,47.35
2019-08-15 10:05:39.906250,40.02
2019-08-15 10:05:39.921875,27.92
2019-08-15 10:05:39.937500,15.91
2019-08-15 10:05:39.953125,7.91
2019-08-15 10:05:39.968750,5.06
2019-08-15 10:05:39.984375,5.73
2019-08-15 10:05:40.000000,7.04
2019-08-15 10:05:40.015625,6.95
2019-08-15 10:05:40.031250,5.55
2019-08-15 10:05:40.046875,4.6
2019-08-15 10:05:40.062500,6.0
2019-08-15 10:05:40.078125,10.13
2019-08-15 10:05:40.093750,15.16
2019-08-15 10:05:40.109375,17.99
2019-08-15 10:05:40.125000,16.11
2019-08-15 10:05:40.140625,9.3
2019-08-15 10:05:40.156250,0.17
2019-08-15 10:05:40.171875,-7.05
2019-08-15 10:05:40.187500,-8.57
2019-08-15 10:05:40.203125,-3.12
2019-08-15 10:05:40.218750,7.29
2019-08-15 10:05:40.234375,18.31
2019-08-15 10:05:40.250000,25.36
2019-08-15 10:05:40.265625,25.94
2019-08-15 10:05:40.281250,20.73
2019-08-15 10:05:40.296875,13.06
2019-08-15 10:05:40.312500,7.02
2019-08-15 10:05:40.328125,5.09
2019-08-15 10:05:40.343750,6.9
2019-08-15 10:05:40.359375,9.66
2019-08-15 10:05:40.375000,9.92
2019-08-15 10:05:40.390625,5.74
2019-08-15 10:05:40.406250,-1.94
2019-08-15 10:05:40.421875,-9.97
2019-08-15 10:05:40.437500,-14.69
2019-08-15 10:05:40.453125,-14.11
2019-08-15 10:05:40.468750,-9.11
2019-08-15 10:05:40.484375,-2.91
2019-08-15 10:05:40.500000,0.78
2019-08-15 10:05:40.515625,-0.06
2019-08-15 10:05:40.531250,-4.56
2019-08-15 10:05:40.546875,-9.45
2019-08-15 10:05:40.562500,-10.99
2019-08-15 10:05:40.578125,-7.18
2019-08-15 10:05:40.593750,1.04
2019-08-15 10:05:40.609375,10.19
2019-08-15 10:05:40.625000,16.23
2019-08-15 10:05:40.640625,16.77
2019-08-15 10:05:40.656250,12.32
2019-08-15 10:05:40.671875,5.94
2019-08-15 10:05:40.687500,1.34
2019-08-15 10:05:40.703125,0.72
2019-08-15 10:05:40.718750,3.51
2019-08-15 10:05:40.734375,6.8
2019-08-15 10:05:40.750000,7.1
2019-08-15 10:05:40.765625,2.58
2019-08-15 10:05:40.781250,-5.64
2019-08-15 10:05:40.796875,-13.98
2019-08-15 10:05:40.812500,-18.29
2019-08-15 10:05:40.828125,-16.17
2019-08-15 10:05:40.843750,-8.38
2019-08-15 10:05:40.859375,1.61
2019-08-15 10:05:40.875000,9.32
2019-08-15 10:05:40.890625,11.66
2019-08-15 10:05:40.906250,8.45
2019-08-15 10:05:40.921875,2.2
2019-08-15 10:05:40.937500,-3.43
2019-08-15 10:05:40.953125,-5.75
2019-08-15 10:05:40.968750,-4.58
2019-08-15 10:05:40.984375,-1.99
2019-08-15 10:05:41.000000,-0.92
2019-08-15 10:05:41.015625,-3.18
2019-08-15 10:05:41.031250,-8.16
2019-08-15 10:05:41.046875,-13.11
2019-08-15 10:05:41.062500,-14.79
2019-08-15 10:05:41.078125,-11.33
2019-08-15 10:05:41.093750,-3.48
2019-08-15 10:05:41.109375,5.64
2019-08-15 10:05:41.125000,12.25
2019-08-15 10:05:41.140625,13.86
2019-08-15 10:05:41.156250,10.49
2019-08-15 10:05:41.171875,4.54
2019-08-15 10:05:41.187500,-0.75
2019-08-15 10:05:41.203125,-3.12
2019-08-15 10:05:41.218750,-2.43
2019-08-15 10:05:41.234375,-0.46
2019-08-15 10:05:41.250000,0.29
2019-08-15 10:05:41.265625,-1.69
2019-08-15 10:05:41.281250,-5.96
2019-08-15 10:05:41.296875,-10.35
2019-08-15 10:05:41.312500,-12.1
2019-08-15 10:05:41.328125,-9.5
2019-08-15 10:05:41.343750,-2.97
2019-08-15 10:05:41.359375,5.13
2019-08-15 10:05:41.375000,11.64
2019-08-15 10:05:41.390625,14.27
2019-08-15 10:05:41.406250,12.82
2019-08-15 10:05:41.421875,9.18
2019-08-15 10:05:41.437500,6.18
2019-08-15 10:05:41.453125,5.84
2019-08-15 10:05:41.468750,8.07
2019-08-15 10:05:41.484375,10.74
2019-08-15 10:05:41.500000,10.89
2019-08-15 10:05:41.515625,6.68
2019-08-15 10:05:41.531250,-1.27
2019-08-15 10:05:41.546875,-9.92
2019-08-15 10:05:41.562500,-15.33
2019-08-15 10:05:41.578125,-14.84
2019-08-15 10:05:41.593750,-8.62
2019-08-15 10:05:41.609375,0.3
2019-08-15 10:05:41.625000,7.63
2019-08-15 10:05:41.640625,10.07
2019-08-15 10:05:41.656250,7.0
2019-08-15 10:05:41.671875,0.66
2019-08-15 10:05:41.687500,-5.24
2019-08-15 10:05:41.703125,-7.76
2019-08-15 10:05:41.718750,-6.38
2019-08-15 10:05:41.734375,-3.21
2019-08-15 10:05:41.750000,-1.66
2019-08-15 10:05:41.765625,-4.23
2019-08-15 10:05:41.781250,-10.8
2019-08-15 10:05:41.796875,-18.56
2019-08-15 10:05:41.812500,-23.44
2019-08-15 10:05:41.828125,-22.42
2019-08-15 10:05:41.843750,-15.26
2019-08-15 10:05:41.859375,-4.71
2019-08-15 10:05:41.875000,4.99
2019-08-15 10:05:41.890625,10.38
2019-08-15 10:05:41.906250,10.62
2019-08-15 10:05:41.921875,7.74
2019-08-15 10:05:41.937500,5.3
2019-08-15 10:05:41.953125,6.12
2019-08-15 10:05:41.968750,10.66
2019-08-15 10:05:41.984375,16.63
2019-08-15 10:05:42.000000,20.41
2019-08-15 10:05:42.015625,19.26
2019-08-15 10:05:42.031250,12.91
2019-08-15 10:05:42.046875,3.86
2019-08-15 10:05:42.062500,-3.97
2019-08-15 10:05:42.078125,-7.41
2019-08-15 10:05:42.093750,-5.84
2019-08-15 10:05:42.109375,-1.48
2019-08-15 10:05:42.125000,1.99
2019-08-15 10:05:42.140625,1.53
2019-08-15 10:05:42.156250,-3.26
2019-08-15 10:05:42.171875,-9.93
2019-08-15 10:05:42.187500,-14.49
2019-08-15 10:05:42.203125,-13.77
2019-08-15 10:05:42.218750,-7.34
2019-08-15 10:05:42.234375,2.15
2019-08-15 10:05:42.250000,10.41
2019-08-15 10:05:42.265625,13.9
2019-08-15 10:05:42.281250,11.82
2019-08-15 10:05:42.296875,6.38
2019-08-15 10:05:42.312500,1.35
2019-08-15 10:05:42.328125,-0.31
2019-08-15 10:05:42.343750,1.78
2019-08-15 10:05:42.359375,5.21
2019-08-15 10:05:42.375000,6.2
2019-08-15 10:05:42.390625,1.9
2019-08-15 10:05:42.406250,-7.86
2019-08-15 10:05:42.421875,-20.29
2019-08-15 10:05:42.437500,-30.95
2019-08-15 10:05:42.453125,-35.98
2019-08-15 10:05:42.468750,-33.99
2019-08-15 10:05:42.484375,-26.74
2019-08-15 10:05:42.500000,-18.23
2019-08-15 10:05:42.515625,-12.55
2019-08-15 10:05:42.531250,-12.0
2019-08-15 10:05:42.546875,-16.03
2019-08-15 10:05:42.562500,-21.87
2019-08-15 10:05:42.578125,-26.33
2019-08-15 10:05:42.593750,-27.71
2019-08-15 10:05:42.609375,-26.8
2019-08-15 10:05:42.625000,-26.05
2019-08-15 10:05:42.640625,-27.76
2019-08-15 10:05:42.656250,-32.14
2019-08-15 10:05:42.671875,-36.74
2019-08-15 10:05:42.687500,-37.69
2019-08-15 10:05:42.703125,-32.16
2019-08-15 10:05:42.718750,-20.35
2019-08-15 10:05:42.734375,-5.88
2019-08-15 10:05:42.750000,5.92
2019-08-15 10:05:42.765625,10.77
2019-08-15 10:05:42.781250,7.51
2019-08-15 10:05:42.796875,-1.74
2019-08-15 10:05:42.812500,-13.25
2019-08-15 10:05:42.828125,-24.23
2019-08-15 10:05:42.843750,-34.2
2019-08-15 10:05:42.859375,-44.44
2019-08-15 10:05:42.875000,-55.96
2019-08-15 10:05:42.890625,-67.38
2019-08-15 10:05:42.906250,-74.45
2019-08-15 10:05:42.921875,-71.9
2019-08-15 10:05:42.937500,-56.69
2019-08-15 10:05:42.953125,-31.18
2019-08-15 10:05:42.968750,-3.77
2019-08-15 10:05:42.984375,13.79
2019-08-15 10:05:43.000000,11.45
2019-08-15 10:05:43.015625,-14.11
2019-08-15 10:05:43.031250,-57.41
2019-08-15 10:05:43.046875,-106.1
2019-08-15 10:05:43.062500,-146.44
2019-08-15 10:05:43.078125,-169.23
2019-08-15 10:05:43.093750,-173.41
2019-08-15 10:05:43.109375,-165.24
2019-08-15 10:05:43.125000,-154.03
2019-08-15 10:05:43.140625,-146.83
2019-08-15 10:05:43.156250,-145.02
2019-08-15 10:05:43.171875,-144.52
2019-08-15 10:05:43.187500,-138.87
2019-08-15 10:05:43.203125,-123.06
2019-08-15 10:05:43.218750,-95.97
2019-08-15 10:05:43.234375,-60.78
2019-08-15 10:05:43.250000,-23.54
2019-08-15 10:05:43.265625,8.86
2019-08-15 10:05:43.281250,30.46
2019-08-15 10:05:43.296875,38.12
2019-08-15 10:05:43.312500,32.72
2019-08-15 10:05:43.328125,19.42
2019-08-15 10:05:43.343750,6.41
2019-08-15 10:05:43.359375,2.16
2019-08-15 10:05:43.375000,11.86
2019-08-15 10:05:43.390625,34.82
2019-08-15 10:05:43.406250,64.33
2019-08-15 10:05:43.421875,90.3
2019-08-15 10:05:43.437500,103.53
2019-08-15 10:05:43.453125,99.4
2019-08-15 10:05:43.468750,79.53
2019-08-15 10:05:43.484375,50.74
2019-08-15 10:05:43.500000,22.27
2019-08-15 10:05:43.515625,2.58
2019-08-15 10:05:43.531250,-3.17
2019-08-15 10:05:43.546875,5.63
2019-08-15 10:05:43.562500,25.09
2019-08-15 10:05:43.578125,48.03
2019-08-15 10:05:43.593750,66.21
2019-08-15 10:05:43.609375,73.2
2019-08-15 10:05:43.625000,66.58
2019-08-15 10:05:43.640625,48.77
2019-08-15 10:05:43.656250,25.86
2019-08-15 10:05:43.671875,5.11
2019-08-15 10:05:43.687500,-7.74
2019-08-15 10:05:43.703125,-10.14
2019-08-15 10:05:43.718750,-2.58
2019-08-15 10:05:43.734375,12.65
2019-08-15 10:05:43.750000,33.1
2019-08-15 10:05:43.765625,56.92
2019-08-15 10:05:43.781250,82.5
2019-08-15 10:05:43.796875,107.71
2019-08-15 10:05:43.812500,129.54
2019-08-15 10:05:43.828125,144.45
2019-08-15 10:05:43.843750,149.78
2019-08-15 10:05:43.859375,145.04
2019-08-15 10:05:43.875000,132.53
2019-08-15 10:05:43.890625,116.76
2019-08-15 10:05:43.906250,102.66
2019-08-15 10:05:43.921875,93.63
2019-08-15 10:05:43.937500,90.26
2019-08-15 10:05:43.953125,90.27
2019-08-15 10:05:43.968750,89.72
2019-08-15 10:05:43.984375,84.96
2019-08-15 10:05:44.000000,74.43
2019-08-15 10:05:44.015625,59.4
2019-08-15 10:05:44.031250,43.43
2019-08-15 10:05:44.046875,30.66
2019-08-15 10:05:44.062500,23.99
2019-08-15 10:05:44.078125,23.83
2019-08-15 10:05:44.093750,27.97
2019-08-15 10:05:44.109375,32.71
2019-08-15 10:05:44.125000,34.59
2019-08-15 10:05:44.140625,31.87
2019-08-15 10:05:44.156250,25.09
2019-08-15 10:05:44.171875,16.44
2019-08-15 10:05:44.187500,8.43
2019-08-15 10:05:44.203125,2.66
2019-08-15 10:05:44.218750,-0.8
2019-08-15 10:05:44.234375,-3.07
2019-08-15 10:05:44.250000,-5.54
2019-08-15 10:05:44.265625,-8.88
2019-08-15 10:05:44.281250,-12.63
2019-08-15 10:05:44.296875,-15.44
2019-08-15 10:05:44.312500,-15.85
2019-08-15 10:05:44.328125,-13.14
2019-08-15 10:05:44.343750,-7.79
2019-08-15 10:05:44.359375,-1.41
2019-08-15 10:05:44.375000,3.94
2019-08-15 10:05:44.390625,6.58
2019-08-15 10:05:44.406250,6.0
2019-08-15 10:05:44.421875,3.05
2019-08-15 10:05:44.437500,-0.43
2019-08-15 10:05:44.453125,-2.57
2019-08-15 10:05:44.468750,-2.36
2019-08-15 10:05:44.484375,-0.21
2019-08-15 10:05:44.500000,2.35
2019-08-15 10:05:44.515625,3.54
2019-08-15 10:05:44.531250,2.43
2019-08-15 10:05:44.546875,-0.52
2019-08-15 10:05:44.562500,-3.66
2019-08-15 10:05:44.578125,-5.19
2019-08-15 10:05:44.593750,-4.2
2019-08-15 10:05:44.609375,-1.21
2019-08-15 10:05:44.625000,2.06
2019-08-15 10:05:44.640625,3.8
2019-08-15 10:05:44.656250,3.15
2019-08-15 10:05:44.671875,0.68
2019-08-15 10:05:44.687500,-2.0
2019-08-15 10:05:44.703125,-3.17
2019-08-15 10:05:44.718750,-2.05
2019-08-15 10:05:44.734375,0.84
2019-08-15 10:05:44.750000,4.02
2019-08-15 10:05:44.765625,5.99
2019-08-15 10:05:44.781250,6.05
2019-08-15 10:05:44.796875,4.59
2019-08-15 10:05:44.812500,2.76
2019-08-15 10:05:44.828125,1.69
2019-08-15 10:05:44.843750,1.85
2019-08-15 10:05:44.859375,2.78
2019-08-15 10:05:44.875000,3.45
2019-08-15 10:05:44.890625,2.9
2019-08-15 10:05:44.906250,0.94
2019-08-15 10:05:44.921875,-1.69
2019-08-15 10:05:44.937500,-3.66
2019-08-15 10:05:44.953125,-3.75
2019-08-15 10:05:44.968750,-1.51
2019-08-15 10:05:44.984375,2.36
2019-08-15 10:05:45.000000,6.39
2019-08-15 10:05:45.015625,8.93
2019-08-15 10:05:45.031250,8.99
2019-08-15 10:05:45.046875,6.63
2019-08-15 10:05:45.062500,2.91
2019-08-15 10:05:45.078125,-0.74
2019-08-15 10:05:45.093750,-3.1
2019-08-15 10:05:45.109375,-3.76
2019-08-15 10:05:45.125000,-3.11
2019-08-15 10:05:45.140625,-2.06
2019-08-15 10:05:45.156250,-1.41
2019-08-15 10:05:45.171875,-1.46
2019-08-15 10:05:45.187500,-1.92
2019-08-15 10:05:45.203125,-2.22
2019-08-15 10:05:45.218750,-2.04
2019-08-15 10:05:45.234375,-1.6
2019-08-15 10:05:45.250000,-1.61
2019-08-15 10:05:45.265625,-2.81
2019-08-15 10:05:45.281250,-5.36
2019-08-15 10:05:45.296875,-8.63
2019-08-15 10:05:45.312500,-11.3
2019-08-15 10:05:45.328125,-12.06
2019-08-15 10:05:45.343750,-10.27
2019-08-15 10:05:45.359375,-6.35
2019-08-15 10:05:45.375000,-1.56
2019-08-15 10:05:45.390625,2.63
2019-08-15 10:05:45.406250,5.27
2019-08-15 10:05:45.421875,6.34
2019-08-15 10:05:45.437500,6.52
2019-08-15 10:05:45.453125,6.73
2019-08-15 10:05:45.468750,7.39
2019-08-15 10:05:45.484375,8.22
2019-08-15 10:05:45.500000,8.39
2019-08-15 10:05:45.515625,7.09
2019-08-15 10:05:45.531250,4.13
2019-08-15 10:05:45.546875,0.21
2019-08-15 10:05:45.562500,-3.3
2019-08-15 10:05:45.578125,-5.08
2019-08-15 10:05:45.593750,-4.53
2019-08-15 10:05:45.609375,-2.25
2019-08-15 10:05:45.625000,0.33
2019-08-15 10:05:45.640625,1.71
2019-08-15 10:05:45.656250,1.15
2019-08-15 10:05:45.671875,-0.8
2019-08-15 10:05:45.687500,-2.62
2019-08-15 10:05:45.703125,-2.6
2019-08-15 10:05:45.718750,0.13
2019-08-15 10:05:45.734375,5.21
2019-08-15 10:05:45.750000,11.17
2019-08-15 10:05:45.765625,16.37
2019-08-15 10:05:45.781250,19.76
2019-08-15 10:05:45.796875,21.33
2019-08-15 10:05:45.812500,21.78
2019-08-15 10:05:45.828125,21.86
2019-08-15 10:05:45.843750,21.68
2019-08-15 10:05:45.859375,20.53
2019-08-15 10:05:45.875000,17.27
2019-08-15 10:05:45.890625,11.03
2019-08-15 10:05:45.906250,1.94
2019-08-15 10:05:45.921875,-8.77
2019-08-15 10:05:45.937500,-19.1
2019-08-15 10:05:45.953125,-27.07
2019-08-15 10:05:45.968750,-31.54
2019-08-15 10:05:45.984375,-32.58
2019-08-15 10:05:46.000000,-31.32
2019-08-15 10:05:46.015625,-29.25
2019-08-15 10:05:46.031250,-27.37
2019-08-15 10:05:46.046875,-25.69
2019-08-15 10:05:46.062500,-23.36
2019-08-15 10:05:46.078125,-19.34
2019-08-15 10:05:46.093750,-13.23
2019-08-15 10:05:46.109375,-5.75
2019-08-15 10:05:46.125000,1.52
2019-08-15 10:05:46.140625,6.92
2019-08-15 10:05:46.156250,9.64
2019-08-15 10:05:46.171875,10.17
2019-08-15 10:05:46.187500,10.03
2019-08-15 10:05:46.203125,10.94
2019-08-15 10:05:46.218750,13.83
2019-08-15 10:05:46.234375,18.39
2019-08-15 10:05:46.250000,23.22
2019-08-15 10:05:46.265625,26.59
2019-08-15 10:05:46.281250,27.21
2019-08-15 10:05:46.296875,24.74
2019-08-15 10:05:46.312500,19.8
2019-08-15 10:05:46.328125,13.49
2019-08-15 10:05:46.343750,6.93
2019-08-15 10:05:46.359375,0.98
2019-08-15 10:05:46.375000,-3.78
2019-08-15 10:05:46.390625,-6.7
2019-08-15 10:05:46.406250,-6.87
2019-08-15 10:05:46.421875,-3.16
2019-08-15 10:05:46.437500,5.39
2019-08-15 10:05:46.453125,18.86
2019-08-15 10:05:46.468750,36.18
2019-08-15 10:05:46.484375,55.18
2019-08-15 10:05:46.500000,73.27
2019-08-15 10:05:46.515625,88.24
2019-08-15 10:05:46.531250,98.96
2019-08-15 10:05:46.546875,105.37
2019-08-15 10:05:46.562500,107.95
2019-08-15 10:05:46.578125,107.04
2019-08-15 10:05:46.593750,102.34
2019-08-15 10:05:46.609375,93.17
2019-08-15 10:05:46.625000,79.07
2019-08-15 10:05:46.640625,60.67
2019-08-15 10:05:46.656250,39.96
2019-08-15 10:05:46.671875,20.0
2019-08-15 10:05:46.687500,4.01
2019-08-15 10:05:46.703125,-5.87
2019-08-15 10:05:46.718750,-9.53
2019-08-15 10:05:46.734375,-9.1
2019-08-15 10:05:46.750000,-8.24
2019-08-15 10:05:46.765625,-10.64
2019-08-15 10:05:46.781250,-18.44
2019-08-15 10:05:46.796875,-31.26
2019-08-15 10:05:46.812500,-46.43
2019-08-15 10:05:46.828125,-60.35
2019-08-15 10:05:46.843750,-70.24
2019-08-15 10:05:46.859375,-75.31
2019-08-15 10:05:46.875000,-76.79
2019-08-15 10:05:46.890625,-76.69
2019-08-15 10:05:46.906250,-76.21
2019-08-15 10:05:46.921875,-74.77
2019-08-15 10:05:46.937500,-70.42
2019-08-15 10:05:46.953125,-61.37
2019-08-15 10:05:46.968750,-47.63
2019-08-15 10:05:46.984375,-31.95
2019-08-15 10:05:47.000000,-19.08
2019-08-15 10:05:47.015625,-13.73
2019-08-15 10:05:47.031250,-18.42
2019-08-15 10:05:47.046875,-32.01
2019-08-15 10:05:47.062500,-50.0
2019-08-15 10:05:47.078125,-66.18
2019-08-15 10:05:47.093750,-74.91
2019-08-15 10:05:47.109375,-72.86
2019-08-15 10:05:47.125000,-59.72
2019-08-15 10:05:47.140625,-37.63
2019-08-15 10:05:47.156250,-10.1
2019-08-15 10:05:47.171875,19.21
2019-08-15 10:05:47.187500,47.29
2019-08-15 10:05:47.203125,72.16
2019-08-15 10:05:47.218750,92.96
2019-08-15 10:05:47.234375,109.78
2019-08-15 10:05:47.250000,123.45
2019-08-15 10:05:47.265625,135.06
2019-08-15 10:05:47.281250,145.33
2019-08-15 10:05:47.296875,154.24
2019-08-15 10:05:47.312500,160.64
2019-08-15 10:05:47.328125,162.35
2019-08-15 10:05:47.343750,156.41
2019-08-15 10:05:47.359375,139.92
2019-08-15 10:05:47.375000,111.28
2019-08-15 10:05:47.390625,71.56
2019-08-15 10:05:47.406250,25.27
2019-08-15 10:05:47.421875,-20.17
2019-08-15 10:05:47.437500,-56.42
2019-08-15 10:05:47.453125,-77.13
2019-08-15 10:05:47.468750,-80.3
2019-08-15 10:05:47.484375,-69.07
2019-08-15 10:05:47.500000,-50.31
2019-08-15 10:05:47.515625,-31.75
2019-08-15 10:05:47.531250,-19.29
2019-08-15 10:05:47.546875,-15.5
2019-08-15 10:05:47.562500,-19.95
2019-08-15 10:05:47.578125,-30.59
2019-08-15 10:05:47.593750,-45.06
2019-08-15 10:05:47.609375,-61.15
2019-08-15 10:05:47.625000,-76.46
2019-08-15 10:05:47.640625,-88.13
2019-08-15 10:05:47.656250,-92.99
2019-08-15 10:05:47.671875,-88.71
2019-08-15 10:05:47.687500,-74.97
2019-08-15 10:05:47.703125,-54.17
2019-08-15 10:05:47.718750,-31.11
2019-08-15 10:05:47.734375,-11.84
2019-08-15 10:05:47.750000,-1.68
2019-08-15 10:05:47.765625,-3.67
2019-08-15 10:05:47.781250,-17.5
2019-08-15 10:05:47.796875,-39.65
2019-08-15 10:05:47.812500,-64.51
2019-08-15 10:05:47.828125,-86.0
2019-08-15 10:05:47.843750,-99.31
2019-08-15 10:05:47.859375,-102.12
2019-08-15 10:05:47.875000,-94.97
2019-08-15 10:05:47.890625,-80.66
2019-08-15 10:05:47.906250,-63.12
2019-08-15 10:05:47.921875,-46.12
2019-08-15 10:05:47.937500,-32.23
2019-08-15 10:05:47.953125,-22.45
2019-08-15 10:05:47.968750,-16.43
2019-08-15 10:05:47.984375,-12.92
2019-08-15 10:05:48.000000,-10.48
2019-08-15 10:05:48.015625,-7.88
2019-08-15 10:05:48.031250,-4.37
2019-08-15 10:05:48.046875,0.13
2019-08-15 10:05:48.062500,5.02
2019-08-15 10:05:48.078125,9.07
2019-08-15 10:05:48.093750,10.58
2019-08-15 10:05:48.109375,7.76
2019-08-15 10:05:48.125000,-0.7
2019-08-15 10:05:48.140625,-15.04
2019-08-15 10:05:48.156250,-33.89
2019-08-15 10:05:48.171875,-54.27
2019-08-15 10:05:48.187500,-72.03
2019-08-15 10:05:48.203125,-82.9
2019-08-15 10:05:48.218750,-83.62
2019-08-15 10:05:48.234375,-73.11
2019-08-15 10:05:48.250000,-52.68
2019-08-15 10:05:48.265625,-25.76
2019-08-15 10:05:48.281250,3.4
2019-08-15 10:05:48.296875,31.18
2019-08-15 10:05:48.312500,55.71
2019-08-15 10:05:48.328125,76.96
2019-08-15 10:05:48.343750,96.0
2019-08-15 10:05:48.359375,113.78
2019-08-15 10:05:48.375000,130.18
2019-08-15 10:05:48.390625,143.82
2019-08-15 10:05:48.406250,152.59
2019-08-15 10:05:48.421875,154.7
2019-08-15 10:05:48.437500,149.48
2019-08-15 10:05:48.453125,137.64
2019-08-15 10:05:48.468750,120.95
2019-08-15 10:05:48.484375,101.77
2019-08-15 10:05:48.500000,82.47
2019-08-15 10:05:48.515625,65.03
2019-08-15 10:05:48.531250,51.06
2019-08-15 10:05:48.546875,41.56
2019-08-15 10:05:48.562500,36.68
2019-08-15 10:05:48.578125,35.56
2019-08-15 10:05:48.593750,36.03
2019-08-15 10:05:48.609375,34.47
2019-08-15 10:05:48.625000,26.01
2019-08-15 10:05:48.640625,5.6
2019-08-15 10:05:48.656250,-30.23
2019-08-15 10:05:48.671875,-81.18
2019-08-15 10:05:48.687500,-141.9
2019-08-15 10:05:48.703125,-202.6
2019-08-15 10:05:48.718750,-251.78
2019-08-15 10:05:48.734375,-280.07
2019-08-15 10:05:48.750000,-283.29
2019-08-15 10:05:48.765625,-263.56
2019-08-15 10:05:48.781250,-227.73
2019-08-15 10:05:48.796875,-184.44
2019-08-15 10:05:48.812500,-141.19
2019-08-15 10:05:48.828125,-102.71
2019-08-15 10:05:48.843750,-71.07
2019-08-15 10:05:48.859375,-46.64
2019-08-15 10:05:48.875000,-29.12
2019-08-15 10:05:48.890625,-18.02
2019-08-15 10:05:48.906250,-12.56
2019-08-15 10:05:48.921875,-11.52
2019-08-15 10:05:48.937500,-13.45
2019-08-15 10:05:48.953125,-16.91
2019-08-15 10:05:48.968750,-20.86
2019-08-15 10:05:48.984375,-24.46
2019-08-15 10:05:49.000000,-26.76
2019-08-15 10:05:49.015625,-26.49
2019-08-15 10:05:49.031250,-21.92
2019-08-15 10:05:49.046875,-11.25
2019-08-15 10:05:49.062500,6.73
2019-08-15 10:05:49.078125,31.94
2019-08-15 10:05:49.093750,62.4
2019-08-15 10:05:49.109375,94.2
2019-08-15 10:05:49.125000,122.03
2019-08-15 10:05:49.140625,140.45
2019-08-15 10:05:49.156250,145.28
2019-08-15 10:05:49.171875,134.86
2019-08-15 10:05:49.187500,110.53
2019-08-15 10:05:49.203125,76.44
2019-08-15 10:05:49.218750,38.54
2019-08-15 10:05:49.234375,3.38
2019-08-15 10:05:49.250000,-23.13
2019-08-15 10:05:49.265625,-36.72
2019-08-15 10:05:49.281250,-35.39
2019-08-15 10:05:49.296875,-19.87
2019-08-15 10:05:49.312500,6.34
2019-08-15 10:05:49.328125,37.34
2019-08-15 10:05:49.343750,65.76
2019-08-15 10:05:49.359375,84.21
2019-08-15 10:05:49.375000,86.99
2019-08-15 10:05:49.390625,71.52
2019-08-15 10:05:49.406250,39.0
2019-08-15 10:05:49.421875,-5.78
2019-08-15 10:05:49.437500,-55.58
2019-08-15 10:05:49.453125,-102.2
2019-08-15 10:05:49.468750,-138.23
2019-08-15 10:05:49.484375,-158.47
2019-08-15 10:05:49.500000,-161.12
2019-08-15 10:05:49.515625,-148.15
2019-08-15 10:05:49.531250,-124.77
2019-08-15 10:05:49.546875,-97.77
2019-08-15 10:05:49.562500,-73.08
2019-08-15 10:05:49.578125,-53.48
2019-08-15 10:05:49.593750,-37.57
2019-08-15 10:05:49.609375,-20.59
2019-08-15 10:05:49.625000,3.01
2019-08-15 10:05:49.640625,36.31
2019-08-15 10:05:49.656250,77.66
2019-08-15 10:05:49.671875,120.47
2019-08-15 10:05:49.687500,155.5
2019-08-15 10:05:49.703125,174.37
2019-08-15 10:05:49.718750,172.9
2019-08-15 10:05:49.734375,152.53
2019-08-15 10:05:49.750000,119.41
2019-08-15 10:05:49.765625,81.81
2019-08-15 10:05:49.781250,47.24
2019-08-15 10:05:49.796875,20.47
2019-08-15 10:05:49.812500,3.35
2019-08-15 10:05:49.828125,-4.49
2019-08-15 10:05:49.843750,-4.28
2019-08-15 10:05:49.859375,2.36
2019-08-15 10:05:49.875000,13.04
2019-08-15 10:05:49.890625,24.16
2019-08-15 10:05:49.906250,31.29
2019-08-15 10:05:49.921875,30.64
2019-08-15 10:05:49.937500,21.19
2019-08-15 10:05:49.953125,5.72
2019-08-15 10:05:49.968750,-9.86
2019-08-15 10:05:49.984375,-18.96
2019-08-15 10:05:50.000000,-17.34
2019-08-15 10:05:50.015625,-4.88
2019-08-15 10:05:50.031250,14.68
2019-08-15 10:05:50.046875,35.71
2019-08-15 10:05:50.062500,53.14
2019-08-15 10:05:50.078125,64.06
2019-08-15 10:05:50.093750,67.86
2019-08-15 10:05:50.109375,65.32
2019-08-15 10:05:50.125000,57.64
2019-08-15 10:05:50.140625,46.07
2019-08-15 10:05:50.156250,32.09
2019-08-15 10:05:50.171875,17.66
2019-08-15 10:05:50.187500,5.01
2019-08-15 10:05:50.203125,-4.17
2019-08-15 10:05:50.218750,-9.58
2019-08-15 10:05:50.234375,-12.57
2019-08-15 10:05:50.250000,-15.6
2019-08-15 10:05:50.265625,-21.07
2019-08-15 10:05:50.281250,-30.09
2019-08-15 10:05:50.296875,-41.78
2019-08-15 10:05:50.312500,-53.42
2019-08-15 10:05:50.328125,-61.61
2019-08-15 10:05:50.343750,-63.75
2019-08-15 10:05:50.359375,-59.23
2019-08-15 10:05:50.375000,-49.78
2019-08-15 10:05:50.390625,-38.64
2019-08-15 10:05:50.406250,-29.08
2019-08-15 10:05:50.421875,-23.02
2019-08-15 10:05:50.437500,-20.4
2019-08-15 10:05:50.453125,-19.74
2019-08-15 10:05:50.468750,-19.39
2019-08-15 10:05:50.484375,-18.75
2019-08-15 10:05:50.500000,-18.72
2019-08-15 10:05:50.515625,-21.22
2019-08-15 10:05:50.531250,-27.94
2019-08-15 10:05:50.546875,-39.25
2019-08-15 10:05:50.562500,-53.76
2019-08-15 10:05:50.578125,-68.83
2019-08-15 10:05:50.593750,-81.71
2019-08-15 10:05:50.609375,-90.66
2019-08-15 10:05:50.625000,-95.47
2019-08-15 10:05:50.640625,-97.11
2019-08-15 10:05:50.656250,-96.82
2019-08-15 10:05:50.671875,-95.11
2019-08-15 10:05:50.687500,-91.3
2019-08-15 10:05:50.703125,-83.74
2019-08-15 10:05:50.718750,-70.64
2019-08-15 10:05:50.734375,-50.94
2019-08-15 10:05:50.750000,-24.91
2019-08-15 10:05:50.765625,5.75
2019-08-15 10:05:50.781250,38.28
2019-08-15 10:05:50.796875,69.19
2019-08-15 10:05:50.812500,94.65
2019-08-15 10:05:50.828125,110.72
2019-08-15 10:05:50.843750,114.11
2019-08-15 10:05:50.859375,102.98
2019-08-15 10:05:50.875000,78.1
2019-08-15 10:05:50.890625,43.29
2019-08-15 10:05:50.906250,4.98
2019-08-15 10:05:50.921875,-28.96
2019-08-15 10:05:50.937500,-50.92
2019-08-15 10:05:50.953125,-54.97
2019-08-15 10:05:50.968750,-37.98
2019-08-15 10:05:50.984375,-0.46
2019-08-15 10:05:51.000000,52.9
2019-08-15 10:05:51.015625,113.51
2019-08-15 10:05:51.031250,170.49
2019-08-15 10:05:51.046875,213.53
2019-08-15 10:05:51.062500,236.22
2019-08-15 10:05:51.078125,238.26
2019-08-15 10:05:51.093750,225.2
2019-08-15 10:05:51.109375,205.8
2019-08-15 10:05:51.125000,187.87
2019-08-15 10:05:51.140625,175.02
2019-08-15 10:05:51.156250,165.87
2019-08-15 10:05:51.171875,155.75
2019-08-15 10:05:51.187500,139.42
2019-08-15 10:05:51.203125,113.51
2019-08-15 10:05:51.218750,77.52
2019-08-15 10:05:51.234375,33.85
2019-08-15 10:05:51.250000,-12.68
2019-08-15 10:05:51.265625,-55.55
2019-08-15 10:05:51.281250,-87.89
2019-08-15 10:05:51.296875,-104.44
2019-08-15 10:05:51.312500,-103.92
2019-08-15 10:05:51.328125,-90.22
2019-08-15 10:05:51.343750,-71.17
2019-08-15 10:05:51.359375,-55.57
2019-08-15 10:05:51.375000,-49.33
2019-08-15 10:05:51.390625,-53.19
2019-08-15 10:05:51.406250,-63.11
2019-08-15 10:05:51.421875,-72.97
2019-08-15 10:05:51.437500,-77.92
2019-08-15 10:05:51.453125,-76.59
2019-08-15 10:05:51.468750,-70.99
2019-08-15 10:05:51.484375,-64.74
2019-08-15 10:05:51.500000,-60.7
2019-08-15 10:05:51.515625,-59.66
2019-08-15 10:05:51.531250,-60.27
2019-08-15 10:05:51.546875,-60.18
2019-08-15 10:05:51.562500,-57.42
2019-08-15 10:05:51.578125,-51.32
2019-08-15 10:05:51.593750,-42.93
2019-08-15 10:05:51.609375,-34.34
2019-08-15 10:05:51.625000,-27.71
2019-08-15 10:05:51.640625,-24.22
2019-08-15 10:05:51.656250,-23.48
2019-08-15 10:05:51.671875,-23.64
2019-08-15 10:05:51.687500,-22.55
2019-08-15 10:05:51.703125,-18.89
2019-08-15 10:05:51.718750,-12.96
2019-08-15 10:05:51.734375,-6.5
2019-08-15 10:05:51.750000,-1.55
2019-08-15 10:05:51.765625,0.78
2019-08-15 10:05:51.781250,0.87
2019-08-15 10:05:51.796875,0.18
2019-08-15 10:05:51.812500,0.21
2019-08-15 10:05:51.828125,1.45
2019-08-15 10:05:51.843750,3.22
2019-08-15 10:05:51.859375,4.24
2019-08-15 10:05:51.875000,3.7
2019-08-15 10:05:51.890625,1.93
2019-08-15 10:05:51.906250,0.19
2019-08-15 10:05:51.921875,-0.18
2019-08-15 10:05:51.937500,1.43
2019-08-15 10:05:51.953125,4.63
2019-08-15 10:05:51.968750,8.35
2019-08-15 10:05:51.984375,11.37
2019-08-15 10:05:52.000000,12.6
2019-08-15 10:05:52.015625,10.97
2019-08-15 10:05:52.031250,5.46
2019-08-15 10:05:52.046875,-4.38
2019-08-15 10:05:52.062500,-17.66
2019-08-15 10:05:52.078125,-31.51
2019-08-15 10:05:52.093750,-41.52
2019-08-15 10:05:52.109375,-43.45
2019-08-15 10:05:52.125000,-35.21
2019-08-15 10:05:52.140625,-18.2
2019-08-15 10:05:52.156250,3.1
2019-08-15 10:05:52.171875,23.06
2019-08-15 10:05:52.187500,37.24
2019-08-15 10:05:52.203125,44.04
2019-08-15 10:05:52.218750,44.79
2019-08-15 10:05:52.234375,42.48
2019-08-15 10:05:52.250000,40.04
2019-08-15 10:05:52.265625,38.97
2019-08-15 10:05:52.281250,39.11
2019-08-15 10:05:52.296875,39.24
2019-08-15 10:05:52.312500,38.06
2019-08-15 10:05:52.328125,35.0
2019-08-15 10:05:52.343750,30.19
2019-08-15 10:05:52.359375,24.01
2019-08-15 10:05:52.375000,16.54
2019-08-15 10:05:52.390625,7.46
2019-08-15 10:05:52.406250,-3.2
2019-08-15 10:05:52.421875,-14.1
2019-08-15 10:05:52.437500,-22.16
2019-08-15 10:05:52.453125,-23.65
2019-08-15 10:05:52.468750,-16.28
2019-08-15 10:05:52.484375,-1.53
2019-08-15 10:05:52.500000,14.94
2019-08-15 10:05:52.515625,25.32
2019-08-15 10:05:52.531250,23.52
2019-08-15 10:05:52.546875,8.66
2019-08-15 10:05:52.562500,-13.89
2019-08-15 10:05:52.578125,-34.95
2019-08-15 10:05:52.593750,-46.06
2019-08-15 10:05:52.609375,-43.7
2019-08-15 10:05:52.625000,-31.17
2019-08-15 10:05:52.640625,-16.98
2019-08-15 10:05:52.656250,-10.96
2019-08-15 10:05:52.671875,-19.89
2019-08-15 10:05:52.687500,-44.77
2019-08-15 10:05:52.703125,-80.69
2019-08-15 10:05:52.718750,-118.86
2019-08-15 10:05:52.734375,-150.0
2019-08-15 10:05:52.750000,-167.2
2019-08-15 10:05:52.765625,-167.38
2019-08-15 10:05:52.781250,-151.27
2019-08-15 10:05:52.796875,-122.79
2019-08-15 10:05:52.812500,-88.08
2019-08-15 10:05:52.828125,-54.55
2019-08-15 10:05:52.843750,-29.43
2019-08-15 10:05:52.859375,-17.8
2019-08-15 10:05:52.875000,-20.45
2019-08-15 10:05:52.890625,-32.95
2019-08-15 10:05:52.906250,-46.93
2019-08-15 10:05:52.921875,-53.47
2019-08-15 10:05:52.937500,-47.03
2019-08-15 10:05:52.953125,-27.66
2019-08-15 10:05:52.968750,-0.3
2019-08-15 10:05:52.984375,28.38
2019-08-15 10:05:53.000000,53.38
2019-08-15 10:05:53.015625,72.87
2019-08-15 10:05:53.031250,87.23
2019-08-15 10:05:53.046875,96.85
2019-08-15 10:05:53.062500,100.91
2019-08-15 10:05:53.078125,98.0
2019-08-15 10:05:53.093750,87.91
2019-08-15 10:05:53.109375,72.81
2019-08-15 10:05:53.125000,56.5
2019-08-15 10:05:53.140625,42.32
2019-08-15 10:05:53.156250,31.4
2019-08-15 10:05:53.171875,22.88
2019-08-15 10:05:53.187500,15.64
2019-08-15 10:05:53.203125,10.03
2019-08-15 10:05:53.218750,8.35
2019-08-15 10:05:53.234375,13.04
2019-08-15 10:05:53.250000,24.08
2019-08-15 10:05:53.265625,37.73
2019-08-15 10:05:53.281250,47.71
2019-08-15 10:05:53.296875,48.36
2019-08-15 10:05:53.312500,37.92
2019-08-15 10:05:53.328125,19.79
2019-08-15 10:05:53.343750,0.83
2019-08-15 10:05:53.359375,-12.2
2019-08-15 10:05:53.375000,-16.02
2019-08-15 10:05:53.390625,-12.07
2019-08-15 10:05:53.406250,-4.92
2019-08-15 10:05:53.421875,0.8
2019-08-15 10:05:53.437500,3.23
2019-08-15 10:05:53.453125,4.02
2019-08-15 10:05:53.468750,6.7
2019-08-15 10:05:53.484375,13.82
2019-08-15 10:05:53.500000,24.76
2019-08-15 10:05:53.515625,35.46
2019-08-15 10:05:53.531250,40.36
2019-08-15 10:05:53.546875,35.49
2019-08-15 10:05:53.562500,20.88
2019-08-15 10:05:53.578125,1.0
2019-08-15 10:05:53.593750,-17.24
2019-08-15 10:05:53.609375,-27.7
2019-08-15 10:05:53.625000,-27.86
2019-08-15 10:05:53.640625,-19.68
2019-08-15 10:05:53.656250,-8.23
2019-08-15 10:05:53.671875,1.07
2019-08-15 10:05:53.687500,5.22
2019-08-15 10:05:53.703125,4.7
2019-08-15 10:05:53.718750,2.63
2019-08-15 10:05:53.734375,2.53
2019-08-15 10:05:53.750000,6.15
2019-08-15 10:05:53.765625,12.49
2019-08-15 10:05:53.781250,18.61
2019-08-15 10:05:53.796875,21.5
2019-08-15 10:05:53.812500,19.85
2019-08-15 10:05:53.828125,14.71
2019-08-15 10:05:53.843750,8.65
2019-08-15 10:05:53.859375,4.09
2019-08-15 10:05:53.875000,1.79
2019-08-15 10:05:53.890625,0.58
2019-08-15 10:05:53.906250,-1.62
2019-08-15 10:05:53.921875,-6.07
2019-08-15 10:05:53.937500,-11.92
2019-08-15 10:05:53.953125,-16.24
2019-08-15 10:05:53.968750,-15.59
2019-08-15 10:05:53.984375,-8.17
2019-08-15 10:05:54.000000,4.72
2019-08-15 10:05:54.015625,18.8
2019-08-15 10:05:54.031250,28.75
2019-08-15 10:05:54.046875,30.8
2019-08-15 10:05:54.062500,24.7
2019-08-15 10:05:54.078125,13.76
2019-08-15 10:05:54.093750,3.1
2019-08-15 10:05:54.109375,-2.97
2019-08-15 10:05:54.125000,-2.93
2019-08-15 10:05:54.140625,1.57
2019-08-15 10:05:54.156250,7.06
2019-08-15 10:05:54.171875,10.31
2019-08-15 10:05:54.187500,9.93
2019-08-15 10:05:54.203125,6.73
2019-08-15 10:05:54.218750,2.91
2019-08-15 10:05:54.234375,0.55
2019-08-15 10:05:54.250000,0.62
2019-08-15 10:05:54.265625,2.61
2019-08-15 10:05:54.281250,5.09
2019-08-15 10:05:54.296875,6.73
2019-08-15 10:05:54.312500,7.08
2019-08-15 10:05:54.328125,6.99
2019-08-15 10:05:54.343750,8.17
2019-08-15 10:05:54.359375,12.2
2019-08-15 10:05:54.375000,19.36
2019-08-15 10:05:54.390625,27.88
2019-08-15 10:05:54.406250,34.24
2019-08-15 10:05:54.421875,34.43
2019-08-15 10:05:54.437500,25.96
2019-08-15 10:05:54.453125,9.37
2019-08-15 10:05:54.468750,-11.42
2019-08-15 10:05:54.484375,-30.35
2019-08-15 10:05:54.500000,-41.44
2019-08-15 10:05:54.515625,-41.11
2019-08-15 10:05:54.531250,-29.6
2019-08-15 10:05:54.546875,-10.86
2019-08-15 10:05:54.562500,8.83
2019-08-15 10:05:54.578125,22.93
2019-08-15 10:05:54.593750,26.7
2019-08-15 10:05:54.609375,18.57
2019-08-15 10:05:54.625000,0.28
2019-08-15 10:05:54.640625,-23.85
2019-08-15 10:05:54.656250,-48.42
2019-08-15 10:05:54.671875,-68.29
2019-08-15 10:05:54.687500,-79.64
2019-08-15 10:05:54.703125,-80.39
2019-08-15 10:05:54.718750,-70.47
2019-08-15 10:05:54.734375,-52.05
2019-08-15 10:05:54.750000,-29.45
2019-08-15 10:05:54.765625,-8.76
2019-08-15 10:05:54.781250,3.45
2019-08-15 10:05:54.796875,2.13
2019-08-15 10:05:54.812500,-14.26
2019-08-15 10:05:54.828125,-42.74
2019-08-15 10:05:54.843750,-76.52
2019-08-15 10:05:54.859375,-107.29
2019-08-15 10:05:54.875000,-128.11
2019-08-15 10:05:54.890625,-135.73
2019-08-15 10:05:54.906250,-131.22
2019-08-15 10:05:54.921875,-118.67
2019-08-15 10:05:54.937500,-102.75
2019-08-15 10:05:54.953125,-86.59
2019-08-15 10:05:54.968750,-70.97
2019-08-15 10:05:54.984375,-55.4
2019-08-15 10:05:55.000000,-40.07
2019-08-15 10:05:55.015625,-27.02
2019-08-15 10:05:55.031250,-19.24
2019-08-15 10:05:55.046875,-18.19
2019-08-15 10:05:55.062500,-21.18
2019-08-15 10:05:55.078125,-20.98
2019-08-15 10:05:55.093750,-8.42
2019-08-15 10:05:55.109375,23.17
2019-08-15 10:05:55.125000,74.14
2019-08-15 10:05:55.140625,138.26
2019-08-15 10:05:55.156250,205.08
2019-08-15 10:05:55.171875,265.7
2019-08-15 10:05:55.187500,316.42
2019-08-15 10:05:55.203125,359.16
2019-08-15 10:05:55.218750,398.38
2019-08-15 10:05:55.234375,436.96
2019-08-15 10:05:55.250000,473.53
2019-08-15 10:05:55.265625,502.77
2019-08-15 10:05:55.281250,518.23
2019-08-15 10:05:55.296875,515.48
2019-08-15 10:05:55.312500,494.05
2019-08-15 10:05:55.328125,456.9
2019-08-15 10:05:55.343750,408.58
2019-08-15 10:05:55.359375,353.27
2019-08-15 10:05:55.375000,293.77
2019-08-15 10:05:55.390625,231.57
2019-08-15 10:05:55.406250,167.63
2019-08-15 10:05:55.421875,103.34
2019-08-15 10:05:55.437500,40.95
2019-08-15 10:05:55.453125,-16.71
2019-08-15 10:05:55.468750,-67.02
2019-08-15 10:05:55.484375,-108.32
2019-08-15 10:05:55.500000,-140.44
2019-08-15 10:05:55.515625,-164.59
2019-08-15 10:05:55.531250,-182.75
2019-08-15 10:05:55.546875,-196.86
2019-08-15 10:05:55.562500,-208.15
2019-08-15 10:05:55.578125,-216.91
2019-08-15 10:05:55.593750,-222.72
2019-08-15 10:05:55.609375,-225.02
2019-08-15 10:05:55.625000,-223.61
2019-08-15 10:05:55.640625,-218.96
2019-08-15 10:05:55.656250,-212.1
2019-08-15 10:05:55.671875,-204.27
2019-08-15 10:05:55.687500,-196.43
2019-08-15 10:05:55.703125,-189.03
2019-08-15 10:05:55.718750,-181.96
2019-08-15 10:05:55.734375,-174.76
2019-08-15 10:05:55.750000,-166.97
2019-08-15 10:05:55.765625,-158.38
2019-08-15 10:05:55.781250,-149.14
2019-08-15 10:05:55.796875,-139.66
2019-08-15 10:05:55.812500,-130.42
2019-08-15 10:05:55.828125,-121.78
2019-08-15 10:05:55.843750,-113.83
2019-08-15 10:05:55.859375,-106.46
2019-08-15 10:05:55.875000,-99.44
2019-08-15 10:05:55.890625,-92.59
2019-08-15 10:05:55.906250,-85.81
2019-08-15 10:05:55.921875,-79.14
2019-08-15 10:05:55.937500,-72.69
2019-08-15 10:05:55.953125,-66.56
2019-08-15 10:05:55.968750,-60.84
2019-08-15 10:05:55.984375,-55.54
2019-08-15 10:05:56.000000,-50.61
2019-08-15 10:05:56.015625,-46.0
2019-08-15 10:05:56.031250,-41.69
2019-08-15 10:05:56.046875,-37.66
2019-08-15 10:05:56.062500,-33.9
2019-08-15 10:05:56.078125,-30.41
2019-08-15 10:05:56.093750,-27.21
2019-08-15 10:05:56.109375,-24.28
2019-08-15 10:05:56.125000,-21.64
2019-08-15 10:05:56.140625,-19.26
2019-08-15 10:05:56.156250,-17.09
2019-08-15 10:05:56.171875,-15.13
2019-08-15 10:05:56.187500,-13.4
2019-08-15 10:05:56.203125,-11.87
2019-08-15 10:05:56.218750,-10.54
2019-08-15 10:05:56.234375,-9.36
2019-08-15 10:05:56.250000,-8.33
2019-08-15 10:05:56.265625,-7.43
2019-08-15 10:05:56.281250,-6.63
2019-08-15 10:05:56.296875,-5.91
2019-08-15 10:05:56.312500,-5.28
2019-08-15 10:05:56.328125,-4.71
2019-08-15 10:05:56.343750,-4.2
2019-08-15 10:05:56.359375,-3.73
2019-08-15 10:05:56.375000,-3.3
2019-08-15 10:05:56.390625,-2.91
2019-08-15 10:05:56.406250,-2.54
2019-08-15 10:05:56.421875,-2.19
2019-08-15 10:05:56.437500,-1.85
2019-08-15 10:05:56.453125,-1.49
2019-08-15 10:05:56.468750,-1.15
2019-08-15 10:05:56.484375,-0.85
2019-08-15 10:05:56.500000,-0.62
2019-08-15 10:05:56.515625,-0.48
2019-08-15 10:05:56.531250,-0.42
2019-08-15 10:05:56.546875,-0.37
2019-08-15 10:05:56.562500,-0.25
2019-08-15 10:05:56.578125,0.03
2019-08-15 10:05:56.593750,0.48
2019-08-15 10:05:56.609375,1.06
2019-08-15 10:05:56.625000,1.66
2019-08-15 10:05:56.640625,2.16
2019-08-15 10:05:56.656250,2.53
2019-08-15 10:05:56.671875,2.73
2019-08-15 10:05:56.687500,2.89
2019-08-15 10:05:56.703125,3.16
2019-08-15 10:05:56.718750,3.64
2019-08-15 10:05:56.734375,4.39
2019-08-15 10:05:56.750000,5.32
2019-08-15 10:05:56.765625,6.3
2019-08-15 10:05:56.781250,7.11
2019-08-15 10:05:56.796875,7.69
2019-08-15 10:05:56.812500,8.02
2019-08-15 10:05:56.828125,8.33
2019-08-15 10:05:56.843750,8.91
2019-08-15 10:05:56.859375,10.02
2019-08-15 10:05:56.875000,11.73
2019-08-15 10:05:56.890625,13.85
2019-08-15 10:05:56.906250,15.95
2019-08-15 10:05:56.921875,17.57
2019-08-15 10:05:56.937500,18.43
2019-08-15 10:05:56.953125,18.58
2019-08-15 10:05:56.968750,18.53
2019-08-15 10:05:56.984375,19.04
2019-08-15 10:05:57.000000,20.75
2019-08-15 10:05:57.015625,23.85
2019-08-15 10:05:57.031250,27.89
2019-08-15 10:05:57.046875,31.86
2019-08-15 10:05:57.062500,34.69
2019-08-15 10:05:57.078125,35.74
2019-08-15 10:05:57.093750,35.08
2019-08-15 10:05:57.109375,33.69
2019-08-15 10:05:57.125000,33.02
2019-08-15 10:05:57.140625,34.15
2019-08-15 10:05:57.156250,37.23
2019-08-15 10:05:57.171875,41.09
2019-08-15 10:05:57.187500,43.64
2019-08-15 10:05:57.203125,42.69
2019-08-15 10:05:57.218750,36.93
2019-08-15 10:05:57.234375,26.41
2019-08-15 10:05:57.250000,12.88
2019-08-15 10:05:57.265625,-1.07
2019-08-15 10:05:57.281250,-13.31
2019-08-15 10:05:57.296875,-22.93
2019-08-15 10:05:57.312500,-30.71
2019-08-15 10:05:57.328125,-38.64
2019-08-15 10:05:57.343750,-48.48
2019-08-15 10:05:57.359375,-60.71
2019-08-15 10:05:57.375000,-75.61
2019-08-15 10:05:57.390625,-92.32
2019-08-15 10:05:57.406250,-109.37
2019-08-15 10:05:57.421875,-124.39
2019-08-15 10:05:57.437500,-133.75
2019-08-15 10:05:57.453125,-133.0
2019-08-15 10:05:57.468750,-118.62
2019-08-15 10:05:57.484375,-90.9
2019-08-15 10:05:57.500000,-54.76
2019-08-15 10:05:57.515625,-20.15
2019-08-15 10:05:57.531250,1.88
2019-08-15 10:05:57.546875,4.06
2019-08-15 10:05:57.562500,-13.48
2019-08-15 10:05:57.578125,-43.17
2019-08-15 10:05:57.593750,-73.67
2019-08-15 10:05:57.609375,-95.41
2019-08-15 10:05:57.625000,-103.79
2019-08-15 10:05:57.640625,-100.12
2019-08-15 10:05:57.656250,-89.24
2019-08-15 10:05:57.671875,-75.56
2019-08-15 10:05:57.687500,-60.88
2019-08-15 10:05:57.703125,-44.51
2019-08-15 10:05:57.718750,-25.36
2019-08-15 10:05:57.734375,-3.59
2019-08-15 10:05:57.750000,17.85
2019-08-15 10:05:57.765625,35.54
2019-08-15 10:05:57.781250,46.89
2019-08-15 10:05:57.796875,51.58
2019-08-15 10:05:57.812500,51.64
2019-08-15 10:05:57.828125,50.18
2019-08-15 10:05:57.843750,50.05
2019-08-15 10:05:57.859375,52.5
2019-08-15 10:05:57.875000,56.74
2019-08-15 10:05:57.890625,60.75
2019-08-15 10:05:57.906250,62.48
2019-08-15 10:05:57.921875,60.77
2019-08-15 10:05:57.937500,55.87
2019-08-15 10:05:57.953125,49.4
2019-08-15 10:05:57.968750,43.49
2019-08-15 10:05:57.984375,39.9
2019-08-15 10:05:58.000000,39.22
2019-08-15 10:05:58.015625,40.79
2019-08-15 10:05:58.031250,42.99
2019-08-15 10:05:58.046875,44.21
2019-08-15 10:05:58.062500,43.4
2019-08-15 10:05:58.078125,40.42
2019-08-15 10:05:58.093750,36.14
2019-08-15 10:05:58.109375,31.93
2019-08-15 10:05:58.125000,29.1
2019-08-15 10:05:58.140625,28.28
2019-08-15 10:05:58.156250,29.27
2019-08-15 10:05:58.171875,31.09
2019-08-15 10:05:58.187500,32.53
2019-08-15 10:05:58.203125,32.53
2019-08-15 10:05:58.218750,30.57
2019-08-15 10:05:58.234375,26.94
2019-08-15 10:05:58.250000,22.47
2019-08-15 10:05:58.265625,18.11
2019-08-15 10:05:58.281250,14.43
2019-08-15 10:05:58.296875,11.28
2019-08-15 10:05:58.312500,7.69
2019-08-15 10:05:58.328125,2.27
2019-08-15 10:05:58.343750,-6.35
2019-08-15 10:05:58.359375,-18.95
2019-08-15 10:05:58.375000,-35.11
2019-08-15 10:05:58.390625,-53.49
2019-08-15 10:05:58.406250,-72.03
2019-08-15 10:05:58.421875,-88.84
2019-08-15 10:05:58.437500,-102.65
2019-08-15 10:05:58.453125,-113.09
2019-08-15 10:05:58.468750,-120.46
2019-08-15 10:05:58.484375,-125.25
2019-08-15 10:05:58.500000,-127.93
2019-08-15 10:05:58.515625,-128.73
2019-08-15 10:05:58.531250,-128.02
2019-08-15 10:05:58.546875,-125.75
2019-08-15 10:05:58.562500,-121.11
2019-08-15 10:05:58.578125,-111.97
2019-08-15 10:05:58.593750,-95.2
2019-08-15 10:05:58.609375,-68.03
2019-08-15 10:05:58.625000,-29.64
2019-08-15 10:05:58.640625,16.3
2019-08-15 10:05:58.656250,63.27
2019-08-15 10:05:58.671875,103.75
2019-08-15 10:05:58.687500,132.34
2019-08-15 10:05:58.703125,147.56
2019-08-15 10:05:58.718750,151.79
2019-08-15 10:05:58.734375,149.32
2019-08-15 10:05:58.750000,144.02
2019-08-15 10:05:58.765625,137.73
2019-08-15 10:05:58.781250,130.17
2019-08-15 10:05:58.796875,121.34
2019-08-15 10:05:58.812500,110.4
2019-08-15 10:05:58.828125,98.37
2019-08-15 10:05:58.843750,86.84
2019-08-15 10:05:58.859375,76.99
2019-08-15 10:05:58.875000,68.68
2019-08-15 10:05:58.890625,60.79
2019-08-15 10:05:58.906250,51.88
2019-08-15 10:05:58.921875,40.88
2019-08-15 10:05:58.937500,28.05
2019-08-15 10:05:58.953125,14.56
2019-08-15 10:05:58.968750,2.28
2019-08-15 10:05:58.984375,-7.57
2019-08-15 10:05:59.000000,-14.11
2019-08-15 10:05:59.015625,-17.93
2019-08-15 10:05:59.031250,-20.42
2019-08-15 10:05:59.046875,-23.13
2019-08-15 10:05:59.062500,-26.97
2019-08-15 10:05:59.078125,-31.76
2019-08-15 10:05:59.093750,-36.37
2019-08-15 10:05:59.109375,-39.14
2019-08-15 10:05:59.125000,-38.76
2019-08-15 10:05:59.140625,-34.8
2019-08-15 10:05:59.156250,-28.09
2019-08-15 10:05:59.171875,-20.37
2019-08-15 10:05:59.187500,-13.62
2019-08-15 10:05:59.203125,-9.24
2019-08-15 10:05:59.218750,-7.47
2019-08-15 10:05:59.234375,-7.48
2019-08-15 10:05:59.250000,-7.68
2019-08-15 10:05:59.265625,-6.69
2019-08-15 10:05:59.281250,-3.78
2019-08-15 10:05:59.296875,0.53
2019-08-15 10:05:59.312500,4.94
2019-08-15 10:05:59.328125,8.16
2019-08-15 10:05:59.343750,9.57
2019-08-15 10:05:59.359375,9.68
2019-08-15 10:05:59.375000,9.97
2019-08-15 10:05:59.390625,12.33
2019-08-15 10:05:59.406250,18.1
2019-08-15 10:05:59.421875,27.89
2019-08-15 10:05:59.437500,41.36
2019-08-15 10:05:59.453125,57.48
2019-08-15 10:05:59.468750,74.48
2019-08-15 10:05:59.484375,89.67
2019-08-15 10:05:59.500000,99.59
2019-08-15 10:05:59.515625,100.67
2019-08-15 10:05:59.531250,90.63
2019-08-15 10:05:59.546875,69.6
2019-08-15 10:05:59.562500,40.84
2019-08-15 10:05:59.578125,9.62
2019-08-15 10:05:59.593750,-18.85
2019-08-15 10:05:59.609375,-41.28
2019-08-15 10:05:59.625000,-57.15
2019-08-15 10:05:59.640625,-68.02
2019-08-15 10:05:59.656250,-75.92
2019-08-15 10:05:59.671875,-82.16
2019-08-15 10:05:59.687500,-86.97
2019-08-15 10:05:59.703125,-89.86
2019-08-15 10:05:59.718750,-90.98
2019-08-15 10:05:59.734375,-91.53
2019-08-15 10:05:59.750000,-93.42
2019-08-15 10:05:59.765625,-98.54
2019-08-15 10:05:59.781250,-107.95
2019-08-15 10:05:59.796875,-121.19
2019-08-15 10:05:59.812500,-134.73
2019-08-15 10:05:59.828125,-145.33
2019-08-15 10:05:59.843750,-148.28
2019-08-15 10:05:59.859375,-139.7
2019-08-15 10:05:59.875000,-118.64
2019-08-15 10:05:59.890625,-88.1
2019-08-15 10:05:59.906250,-54.47
2019-08-15 10:05:59.921875,-25.07
2019-08-15 10:05:59.937500,-5.28
2019-08-15 10:05:59.953125,3.53
2019-08-15 10:05:59.968750,3.69
2019-08-15 10:05:59.984375,-0.3
2019-08-15 10:06:00.000000,-4.55
2019-08-15 10:06:00.015625,-7.37
2019-08-15 10:06:00.031250,-9.19
2019-08-15 10:06:00.046875,-11.19
2019-08-15 10:06:00.062500,-13.84
2019-08-15 10:06:00.078125,-16.29
2019-08-15 10:06:00.093750,-16.91
2019-08-15 10:06:00.109375,-14.84
2019-08-15 10:06:00.125000,-10.18
2019-08-15 10:06:00.140625,-4.1
2019-08-15 10:06:00.156250,1.87
2019-08-15 10:06:00.171875,6.63
2019-08-15 10:06:00.187500,10.11
2019-08-15 10:06:00.203125,13.0
2019-08-15 10:06:00.218750,16.26
2019-08-15 10:06:00.234375,20.65
2019-08-15 10:06:00.250000,25.97
2019-08-15 10:06:00.265625,31.65
2019-08-15 10:06:00.281250,37.06
2019-08-15 10:06:00.296875,41.98
2019-08-15 10:06:00.312500,46.74
2019-08-15 10:06:00.328125,52.02
2019-08-15 10:06:00.343750,58.51
2019-08-15 10:06:00.359375,66.34
2019-08-15 10:06:00.375000,75.17
2019-08-15 10:06:00.390625,84.03
2019-08-15 10:06:00.406250,92.0
2019-08-15 10:06:00.421875,98.74
2019-08-15 10:06:00.437500,104.54
2019-08-15 10:06:00.453125,110.05
2019-08-15 10:06:00.468750,116.13
2019-08-15 10:06:00.484375,123.77
2019-08-15 10:06:00.500000,132.61
2019-08-15 10:06:00.515625,143.7
2019-08-15 10:06:00.531250,156.1
2019-08-15 10:06:00.546875,166.55
2019-08-15 10:06:00.562500,170.14
2019-08-15 10:06:00.578125,161.91
2019-08-15 10:06:00.593750,139.56
2019-08-15 10:06:00.609375,105.02
2019-08-15 10:06:00.625000,64.7
2019-08-15 10:06:00.640625,26.93
2019-08-15 10:06:00.656250,-1.41
2019-08-15 10:06:00.671875,-17.92
2019-08-15 10:06:00.687500,-24.9
2019-08-15 10:06:00.703125,-27.15
2019-08-15 10:06:00.718750,-29.29
2019-08-15 10:06:00.734375,-33.55
2019-08-15 10:06:00.750000,-39.66
2019-08-15 10:06:00.765625,-45.77
2019-08-15 10:06:00.781250,-50.4
2019-08-15 10:06:00.796875,-53.29
2019-08-15 10:06:00.812500,-55.67
2019-08-15 10:06:00.828125,-59.06
2019-08-15 10:06:00.843750,-63.92
2019-08-15 10:06:00.859375,-69.96
2019-08-15 10:06:00.875000,-76.16
2019-08-15 10:06:00.890625,-81.35
2019-08-15 10:06:00.906250,-84.77
2019-08-15 10:06:00.921875,-86.54
2019-08-15 10:06:00.937500,-87.89
2019-08-15 10:06:00.953125,-90.67
2019-08-15 10:06:00.968750,-96.56
2019-08-15 10:06:00.984375,-105.78
2019-08-15 10:06:01.000000,-117.69
2019-08-15 10:06:01.015625,-129.32
2019-08-15 10:06:01.031250,-139.67
2019-08-15 10:06:01.046875,-148.23
2019-08-15 10:06:01.062500,-155.14
2019-08-15 10:06:01.078125,-160.44
2019-08-15 10:06:01.093750,-162.59
2019-08-15 10:06:01.109375,-159.76
2019-08-15 10:06:01.125000,-146.21
2019-08-15 10:06:01.140625,-118.08
2019-08-15 10:06:01.156250,-75.12
2019-08-15 10:06:01.171875,-21.29
2019-08-15 10:06:01.187500,36.9
2019-08-15 10:06:01.203125,93.06
2019-08-15 10:06:01.218750,142.9
2019-08-15 10:06:01.234375,184.28
2019-08-15 10:06:01.250000,214.25
2019-08-15 10:06:01.265625,231.01
2019-08-15 10:06:01.281250,231.57
2019-08-15 10:06:01.296875,214.09
2019-08-15 10:06:01.312500,180.52
2019-08-15 10:06:01.328125,137.99
2019-08-15 10:06:01.343750,96.91
2019-08-15 10:06:01.359375,66.17
2019-08-15 10:06:01.375000,49.49
2019-08-15 10:06:01.390625,44.01
2019-08-15 10:06:01.406250,43.2
2019-08-15 10:06:01.421875,40.11
2019-08-15 10:06:01.437500,30.88
2019-08-15 10:06:01.453125,15.61
2019-08-15 10:06:01.468750,-3.3
2019-08-15 10:06:01.484375,-22.87
2019-08-15 10:06:01.500000,-40.87
2019-08-15 10:06:01.515625,-55.6
2019-08-15 10:06:01.531250,-65.41
2019-08-15 10:06:01.546875,-68.38
2019-08-15 10:06:01.562500,-64.39
2019-08-15 10:06:01.578125,-55.74
2019-08-15 10:06:01.593750,-45.95
2019-08-15 10:06:01.609375,-40.81
2019-08-15 10:06:01.625000,-42.93
2019-08-15 10:06:01.640625,-50.52
2019-08-15 10:06:01.656250,-58.38
2019-08-15 10:06:01.671875,-61.06
2019-08-15 10:06:01.687500,-56.06
2019-08-15 10:06:01.703125,-45.57
2019-08-15 10:06:01.718750,-34.76
2019-08-15 10:06:01.734375,-28.36
2019-08-15 10:06:01.750000,-27.91
2019-08-15 10:06:01.765625,-30.83
2019-08-15 10:06:01.781250,-32.82
2019-08-15 10:06:01.796875,-30.87
2019-08-15 10:06:01.812500,-25.23
2019-08-15 10:06:01.828125,-18.84
2019-08-15 10:06:01.843750,-15.31
2019-08-15 10:06:01.859375,-16.67
2019-08-15 10:06:01.875000,-22.04
2019-08-15 10:06:01.890625,-28.56
2019-08-15 10:06:01.906250,-33.02
2019-08-15 10:06:01.921875,-34.0
2019-08-15 10:06:01.937500,-32.46
2019-08-15 10:06:01.953125,-30.82
2019-08-15 10:06:01.968750,-31.44
2019-08-15 10:06:01.984375,-35.3
2019-08-15 10:06:02.000000,-41.71
2019-08-15 10:06:02.015625,-48.84
2019-08-15 10:06:02.031250,-54.94
2019-08-15 10:06:02.046875,-58.68
2019-08-15 10:06:02.062500,-60.19
2019-08-15 10:06:02.078125,-60.51
2019-08-15 10:06:02.093750,-60.96
2019-08-15 10:06:02.109375,-62.28
2019-08-15 10:06:02.125000,-64.36
2019-08-15 10:06:02.140625,-65.96
2019-08-15 10:06:02.156250,-65.4
2019-08-15 10:06:02.171875,-61.41
2019-08-15 10:06:02.187500,-53.28
2019-08-15 10:06:02.203125,-41.31
2019-08-15 10:06:02.218750,-26.58
2019-08-15 10:06:02.234375,-10.35
2019-08-15 10:06:02.250000,6.47
2019-08-15 10:06:02.265625,23.51
2019-08-15 10:06:02.281250,40.88
2019-08-15 10:06:02.296875,58.61
2019-08-15 10:06:02.312500,75.64
2019-08-15 10:06:02.328125,91.23
2019-08-15 10:06:02.343750,104.13
2019-08-15 10:06:02.359375,113.11
2019-08-15 10:06:02.375000,117.61
2019-08-15 10:06:02.390625,118.07
2019-08-15 10:06:02.406250,115.93
2019-08-15 10:06:02.421875,112.98
2019-08-15 10:06:02.437500,111.15
2019-08-15 10:06:02.453125,110.66
2019-08-15 10:06:02.468750,111.04
2019-08-15 10:06:02.484375,111.05
2019-08-15 10:06:02.500000,109.58
2019-08-15 10:06:02.515625,106.11
2019-08-15 10:06:02.531250,101.1
2019-08-15 10:06:02.546875,95.72
2019-08-15 10:06:02.562500,91.34
2019-08-15 10:06:02.578125,89.04
2019-08-15 10:06:02.593750,89.43
2019-08-15 10:06:02.609375,92.94
2019-08-15 10:06:02.625000,99.17
2019-08-15 10:06:02.640625,106.39
2019-08-15 10:06:02.656250,111.25
2019-08-15 10:06:02.671875,109.39
2019-08-15 10:06:02.687500,97.01
2019-08-15 10:06:02.703125,72.97
2019-08-15 10:06:02.718750,40.11
2019-08-15 10:06:02.734375,4.55
2019-08-15 10:06:02.750000,-26.35
2019-08-15 10:06:02.765625,-47.23
2019-08-15 10:06:02.781250,-56.71
2019-08-15 10:06:02.796875,-57.27
2019-08-15 10:06:02.812500,-53.26
2019-08-15 10:06:02.828125,-48.4
2019-08-15 10:06:02.843750,-44.07
2019-08-15 10:06:02.859375,-39.6
2019-08-15 10:06:02.875000,-33.69
2019-08-15 10:06:02.890625,-25.91
2019-08-15 10:06:02.906250,-17.47
2019-08-15 10:06:02.921875,-10.47
2019-08-15 10:06:02.937500,-6.6
2019-08-15 10:06:02.953125,-5.99
2019-08-15 10:06:02.968750,-7.26
2019-08-15 10:06:02.984375,-8.08
2019-08-15 10:06:03.000000,-6.3
2019-08-15 10:06:03.015625,-1.27
2019-08-15 10:06:03.031250,6.08
2019-08-15 10:06:03.046875,13.33
2019-08-15 10:06:03.062500,17.65
2019-08-15 10:06:03.078125,16.97
2019-08-15 10:06:03.093750,10.81
2019-08-15 10:06:03.109375,0.51
2019-08-15 10:06:03.125000,-11.36
2019-08-15 10:06:03.140625,-22.1
2019-08-15 10:06:03.156250,-30.16
2019-08-15 10:06:03.171875,-35.72
2019-08-15 10:06:03.187500,-40.43
2019-08-15 10:06:03.203125,-46.45
2019-08-15 10:06:03.218750,-55.33
2019-08-15 10:06:03.234375,-66.55
2019-08-15 10:06:03.250000,-79.18
2019-08-15 10:06:03.265625,-91.68
2019-08-15 10:06:03.281250,-102.72
2019-08-15 10:06:03.296875,-111.23
2019-08-15 10:06:03.312500,-115.53
2019-08-15 10:06:03.328125,-113.31
2019-08-15 10:06:03.343750,-102.42
2019-08-15 10:06:03.359375,-82.62
2019-08-15 10:06:03.375000,-57.42
2019-08-15 10:06:03.390625,-32.87
2019-08-15 10:06:03.406250,-16.05
2019-08-15 10:06:03.421875,-11.46
2019-08-15 10:06:03.437500,-18.87
2019-08-15 10:06:03.453125,-32.78
2019-08-15 10:06:03.468750,-45.71
2019-08-15 10:06:03.484375,-51.76
2019-08-15 10:06:03.500000,-48.72
2019-08-15 10:06:03.515625,-38.27
2019-08-15 10:06:03.531250,-23.84
2019-08-15 10:06:03.546875,-8.34
2019-08-15 10:06:03.562500,7.54
2019-08-15 10:06:03.578125,23.15
2019-08-15 10:06:03.593750,37.94
2019-08-15 10:06:03.609375,49.98
2019-08-15 10:06:03.625000,56.53
2019-08-15 10:06:03.640625,55.79
2019-08-15 10:06:03.656250,48.27
2019-08-15 10:06:03.671875,36.65
2019-08-15 10:06:03.687500,24.3
2019-08-15 10:06:03.703125,14.3
2019-08-15 10:06:03.718750,7.51
2019-08-15 10:06:03.734375,2.78
2019-08-15 10:06:03.750000,-2.26
2019-08-15 10:06:03.765625,-10.06
2019-08-15 10:06:03.781250,-21.89
2019-08-15 10:06:03.796875,-37.67
2019-08-15 10:06:03.812500,-55.86
2019-08-15 10:06:03.828125,-73.92
2019-08-15 10:06:03.843750,-88.14
2019-08-15 10:06:03.859375,-94.82
2019-08-15 10:06:03.875000,-90.75
2019-08-15 10:06:03.890625,-74.02
2019-08-15 10:06:03.906250,-47.41
2019-08-15 10:06:03.921875,-15.9
2019-08-15 10:06:03.937500,14.37
2019-08-15 10:06:03.953125,40.09
2019-08-15 10:06:03.968750,60.43
2019-08-15 10:06:03.984375,77.61
2019-08-15 10:06:04.000000,94.76
2019-08-15 10:06:04.015625,113.61
2019-08-15 10:06:04.031250,132.06
2019-08-15 10:06:04.046875,145.87
2019-08-15 10:06:04.062500,149.51
2019-08-15 10:06:04.078125,139.86
2019-08-15 10:06:04.093750,118.54
2019-08-15 10:06:04.109375,90.27
2019-08-15 10:06:04.125000,63.15
2019-08-15 10:06:04.140625,42.78
2019-08-15 10:06:04.156250,30.55
2019-08-15 10:06:04.171875,23.91
2019-08-15 10:06:04.187500,18.35
2019-08-15 10:06:04.203125,10.78
2019-08-15 10:06:04.218750,0.54
2019-08-15 10:06:04.234375,-10.65
2019-08-15 10:06:04.250000,-21.0
2019-08-15 10:06:04.265625,-30.0
2019-08-15 10:06:04.281250,-39.33
2019-08-15 10:06:04.296875,-51.8
2019-08-15 10:06:04.312500,-69.84
2019-08-15 10:06:04.328125,-94.29
2019-08-15 10:06:04.343750,-122.59
2019-08-15 10:06:04.359375,-151.37
2019-08-15 10:06:04.375000,-175.01
2019-08-15 10:06:04.390625,-187.66
2019-08-15 10:06:04.406250,-185.03
2019-08-15 10:06:04.421875,-166.73
2019-08-15 10:06:04.437500,-136.7
2019-08-15 10:06:04.453125,-102.25
2019-08-15 10:06:04.468750,-71.45
2019-08-15 10:06:04.484375,-49.85
2019-08-15 10:06:04.500000,-38.79
2019-08-15 10:06:04.515625,-35.23
2019-08-15 10:06:04.531250,-34.37
2019-08-15 10:06:04.546875,-32.17
2019-08-15 10:06:04.562500,-27.21
2019-08-15 10:06:04.578125,-20.53
2019-08-15 10:06:04.593750,-13.54
2019-08-15 10:06:04.609375,-6.81
2019-08-15 10:06:04.625000,0.56
2019-08-15 10:06:04.640625,10.17
2019-08-15 10:06:04.656250,23.24
2019-08-15 10:06:04.671875,39.34
2019-08-15 10:06:04.687500,56.58
2019-08-15 10:06:04.703125,72.28
2019-08-15 10:06:04.718750,84.09
2019-08-15 10:06:04.734375,91.06
2019-08-15 10:06:04.750000,93.54
2019-08-15 10:06:04.765625,92.73
2019-08-15 10:06:04.781250,89.81
2019-08-15 10:06:04.796875,85.49
2019-08-15 10:06:04.812500,79.49
2019-08-15 10:06:04.828125,70.94
2019-08-15 10:06:04.843750,59.07
2019-08-15 10:06:04.859375,43.79
2019-08-15 10:06:04.875000,26.07
2019-08-15 10:06:04.890625,7.5
2019-08-15 10:06:04.906250,-10.09
2019-08-15 10:06:04.921875,-25.35
2019-08-15 10:06:04.937500,-37.46
2019-08-15 10:06:04.953125,-46.45
2019-08-15 10:06:04.968750,-52.85
2019-08-15 10:06:04.984375,-57.16
2019-08-15 10:06:05.000000,-59.5
2019-08-15 10:06:05.015625,-59.55
2019-08-15 10:06:05.031250,-57.11
2019-08-15 10:06:05.046875,-52.26
2019-08-15 10:06:05.062500,-45.72
2019-08-15 10:06:05.078125,-38.37
2019-08-15 10:06:05.093750,-31.56
2019-08-15 10:06:05.109375,-26.48
2019-08-15 10:06:05.125000,-23.45
2019-08-15 10:06:05.140625,-21.84
2019-08-15 10:06:05.156250,-20.3
2019-08-15 10:06:05.171875,-17.6
2019-08-15 10:06:05.187500,-12.81
2019-08-15 10:06:05.203125,-5.7
2019-08-15 10:06:05.218750,3.53
2019-08-15 10:06:05.234375,13.66
2019-08-15 10:06:05.250000,23.26
2019-08-15 10:06:05.265625,31.85
2019-08-15 10:06:05.281250,40.4
2019-08-15 10:06:05.296875,51.73
2019-08-15 10:06:05.312500,69.94
2019-08-15 10:06:05.328125,100.67
2019-08-15 10:06:05.343750,144.81
2019-08-15 10:06:05.359375,201.4
2019-08-15 10:06:05.375000,264.44
2019-08-15 10:06:05.390625,323.25
2019-08-15 10:06:05.406250,366.0
2019-08-15 10:06:05.421875,383.57
2019-08-15 10:06:05.437500,373.19
2019-08-15 10:06:05.453125,338.75
2019-08-15 10:06:05.468750,290.24
2019-08-15 10:06:05.484375,239.28
2019-08-15 10:06:05.500000,194.32
2019-08-15 10:06:05.515625,157.1
2019-08-15 10:06:05.531250,123.4
2019-08-15 10:06:05.546875,87.17
2019-08-15 10:06:05.562500,42.83
2019-08-15 10:06:05.578125,-12.55
2019-08-15 10:06:05.593750,-79.9
2019-08-15 10:06:05.609375,-156.17
2019-08-15 10:06:05.625000,-234.93
2019-08-15 10:06:05.640625,-307.39
2019-08-15 10:06:05.656250,-364.21
2019-08-15 10:06:05.671875,-398.32
2019-08-15 10:06:05.687500,-406.54
2019-08-15 10:06:05.703125,-393.22
2019-08-15 10:06:05.718750,-362.97
2019-08-15 10:06:05.734375,-331.88
2019-08-15 10:06:05.750000,-319.42
2019-08-15 10:06:05.765625,-336.29
2019-08-15 10:06:05.781250,-377.17
2019-08-15 10:06:05.796875,-423.69
2019-08-15 10:06:05.812500,-462.22
2019-08-15 10:06:05.828125,-481.54
2019-08-15 10:06:05.843750,-477.98
2019-08-15 10:06:05.859375,-454.6
2019-08-15 10:06:05.875000,-419.23
2019-08-15 10:06:05.890625,-379.03
2019-08-15 10:06:05.906250,-335.16
2019-08-15 10:06:05.921875,-290.43
2019-08-15 10:06:05.937500,-247.01
2019-08-15 10:06:05.953125,-207.09
2019-08-15 10:06:05.968750,-171.42
2019-08-15 10:06:05.984375,-140.27
2019-08-15 10:06:06.000000,-112.87
2019-08-15 10:06:06.015625,-88.14
2019-08-15 10:06:06.031250,-63.71
2019-08-15 10:06:06.046875,-37.05
2019-08-15 10:06:06.062500,-8.0
2019-08-15 10:06:06.078125,22.7
2019-08-15 10:06:06.093750,52.24
2019-08-15 10:06:06.109375,78.03
2019-08-15 10:06:06.125000,97.98
2019-08-15 10:06:06.140625,111.91
2019-08-15 10:06:06.156250,121.5
2019-08-15 10:06:06.171875,130.93
2019-08-15 10:06:06.187500,145.57
2019-08-15 10:06:06.203125,169.03
2019-08-15 10:06:06.218750,204.16
2019-08-15 10:06:06.234375,248.43
2019-08-15 10:06:06.250000,294.19
2019-08-15 10:06:06.265625,330.88
2019-08-15 10:06:06.281250,350.36
2019-08-15 10:06:06.296875,351.31
2019-08-15 10:06:06.312500,340.56
2019-08-15 10:06:06.328125,329.51
2019-08-15 10:06:06.343750,327.86
2019-08-15 10:06:06.359375,343.39
2019-08-15 10:06:06.375000,375.47
2019-08-15 10:06:06.390625,415.89
2019-08-15 10:06:06.406250,452.8
2019-08-15 10:06:06.421875,476.97
2019-08-15 10:06:06.437500,485.55
2019-08-15 10:06:06.453125,481.89
2019-08-15 10:06:06.468750,472.14
2019-08-15 10:06:06.484375,461.66
2019-08-15 10:06:06.500000,459.43
2019-08-15 10:06:06.515625,472.02
2019-08-15 10:06:06.531250,502.28
2019-08-15 10:06:06.546875,548.54
2019-08-15 10:06:06.562500,606.0
2019-08-15 10:06:06.578125,668.17
2019-08-15 10:06:06.593750,727.05
2019-08-15 10:06:06.609375,773.3
2019-08-15 10:06:06.625000,764.37
2019-08-15 10:06:06.640625,675.04
2019-08-15 10:06:06.656250,508.51
2019-08-15 10:06:06.671875,298.33
2019-08-15 10:06:06.687500,89.33
2019-08-15 10:06:06.703125,-85.03
2019-08-15 10:06:06.718750,-211.72
2019-08-15 10:06:06.734375,-293.95
2019-08-15 10:06:06.750000,-342.53
2019-08-15 10:06:06.765625,-369.05
2019-08-15 10:06:06.781250,-377.06
2019-08-15 10:06:06.796875,-368.34
2019-08-15 10:06:06.812500,-346.08
2019-08-15 10:06:06.828125,-318.36
2019-08-15 10:06:06.843750,-294.2
2019-08-15 10:06:06.859375,-279.88
2019-08-15 10:06:06.875000,-277.33
2019-08-15 10:06:06.890625,-285.12
2019-08-15 10:06:06.906250,-300.91
2019-08-15 10:06:06.921875,-318.75
2019-08-15 10:06:06.937500,-333.17
2019-08-15 10:06:06.953125,-342.03
2019-08-15 10:06:06.968750,-347.11
2019-08-15 10:06:06.984375,-351.72
2019-08-15 10:06:07.000000,-358.2
2019-08-15 10:06:07.015625,-367.3
2019-08-15 10:06:07.031250,-378.17
2019-08-15 10:06:07.046875,-388.4
2019-08-15 10:06:07.062500,-391.0
2019-08-15 10:06:07.078125,-378.46
2019-08-15 10:06:07.093750,-346.83
2019-08-15 10:06:07.109375,-298.84
2019-08-15 10:06:07.125000,-243.45
2019-08-15 10:06:07.140625,-192.17
2019-08-15 10:06:07.156250,-153.81
2019-08-15 10:06:07.171875,-130.47
2019-08-15 10:06:07.187500,-117.32
2019-08-15 10:06:07.203125,-104.74
2019-08-15 10:06:07.218750,-85.19
2019-08-15 10:06:07.234375,-58.01
2019-08-15 10:06:07.250000,-29.35
2019-08-15 10:06:07.265625,-7.53
2019-08-15 10:06:07.281250,2.26
2019-08-15 10:06:07.296875,0.67
2019-08-15 10:06:07.312500,-7.01
2019-08-15 10:06:07.328125,-14.86
2019-08-15 10:06:07.343750,-19.22
2019-08-15 10:06:07.359375,-20.13
2019-08-15 10:06:07.375000,-20.03
2019-08-15 10:06:07.390625,-21.06
2019-08-15 10:06:07.406250,-22.92
2019-08-15 10:06:07.421875,-23.28
2019-08-15 10:06:07.437500,-19.63
2019-08-15 10:06:07.453125,-10.77
2019-08-15 10:06:07.468750,2.05
2019-08-15 10:06:07.484375,15.52
2019-08-15 10:06:07.500000,25.95
2019-08-15 10:06:07.515625,30.39
2019-08-15 10:06:07.531250,28.38
2019-08-15 10:06:07.546875,22.09
2019-08-15 10:06:07.562500,15.45
2019-08-15 10:06:07.578125,12.81
2019-08-15 10:06:07.593750,17.29
2019-08-15 10:06:07.609375,29.24
2019-08-15 10:06:07.625000,45.71
2019-08-15 10:06:07.640625,61.28
2019-08-15 10:06:07.656250,69.44
2019-08-15 10:06:07.671875,65.9
2019-08-15 10:06:07.687500,50.95
2019-08-15 10:06:07.703125,30.02
2019-08-15 10:06:07.718750,11.82
2019-08-15 10:06:07.734375,4.91
2019-08-15 10:06:07.750000,13.99
2019-08-15 10:06:07.765625,38.24
2019-08-15 10:06:07.781250,71.85
2019-08-15 10:06:07.796875,105.19
2019-08-15 10:06:07.812500,127.87
2019-08-15 10:06:07.828125,131.59
2019-08-15 10:06:07.843750,112.24
2019-08-15 10:06:07.859375,71.1
2019-08-15 10:06:07.875000,14.99
2019-08-15 10:06:07.890625,-45.24
2019-08-15 10:06:07.906250,-98.96
2019-08-15 10:06:07.921875,-134.36
2019-08-15 10:06:07.937500,-144.55
2019-08-15 10:06:07.953125,-130.3
2019-08-15 10:06:07.968750,-99.52
2019-08-15 10:06:07.984375,-63.69
2019-08-15 10:06:08.000000,-33.47
2019-08-15 10:06:08.015625,-15.51
2019-08-15 10:06:08.031250,-11.37
2019-08-15 10:06:08.046875,-18.65
2019-08-15 10:06:08.062500,-32.8
2019-08-15 10:06:08.078125,-49.44
2019-08-15 10:06:08.093750,-64.85
2019-08-15 10:06:08.109375,-75.98
2019-08-15 10:06:08.125000,-80.28
2019-08-15 10:06:08.140625,-75.75
2019-08-15 10:06:08.156250,-61.44
2019-08-15 10:06:08.171875,-37.54
2019-08-15 10:06:08.187500,-5.24
2019-08-15 10:06:08.203125,33.74
2019-08-15 10:06:08.218750,76.91
2019-08-15 10:06:08.234375,121.56
2019-08-15 10:06:08.250000,165.01
2019-08-15 10:06:08.265625,204.81
2019-08-15 10:06:08.281250,238.65
2019-08-15 10:06:08.296875,263.96
2019-08-15 10:06:08.312500,277.77
2019-08-15 10:06:08.328125,277.19
2019-08-15 10:06:08.343750,260.66
2019-08-15 10:06:08.359375,229.06
2019-08-15 10:06:08.375000,186.38
2019-08-15 10:06:08.390625,138.82
2019-08-15 10:06:08.406250,92.75
2019-08-15 10:06:08.421875,52.29
2019-08-15 10:06:08.437500,18.07
2019-08-15 10:06:08.453125,-11.9
2019-08-15 10:06:08.468750,-39.93
2019-08-15 10:06:08.484375,-66.4
2019-08-15 10:06:08.500000,-89.2
2019-08-15 10:06:08.515625,-104.96
2019-08-15 10:06:08.531250,-111.3
2019-08-15 10:06:08.546875,-108.47
2019-08-15 10:06:08.562500,-99.44
2019-08-15 10:06:08.578125,-88.17
2019-08-15 10:06:08.593750,-77.3
2019-08-15 10:06:08.609375,-66.84
2019-08-15 10:06:08.625000,-54.47
2019-08-15 10:06:08.640625,-37.37
2019-08-15 10:06:08.656250,-14.02
2019-08-15 10:06:08.671875,14.78
2019-08-15 10:06:08.687500,46.19
2019-08-15 10:06:08.703125,76.34
2019-08-15 10:06:08.718750,101.49
2019-08-15 10:06:08.734375,119.12
2019-08-15 10:06:08.750000,128.52
2019-08-15 10:06:08.765625,130.95
2019-08-15 10:06:08.781250,129.26
2019-08-15 10:06:08.796875,127.07
2019-08-15 10:06:08.812500,127.25
2019-08-15 10:06:08.828125,130.69
2019-08-15 10:06:08.843750,135.94
2019-08-15 10:06:08.859375,140.12
2019-08-15 10:06:08.875000,140.94
2019-08-15 10:06:08.890625,138.53
2019-08-15 10:06:08.906250,135.82
2019-08-15 10:06:08.921875,136.71
2019-08-15 10:06:08.937500,143.61
2019-08-15 10:06:08.953125,155.17
2019-08-15 10:06:08.968750,166.07
2019-08-15 10:06:08.984375,169.27
2019-08-15 10:06:09.000000,159.41
2019-08-15 10:06:09.015625,135.51
2019-08-15 10:06:09.031250,101.59
2019-08-15 10:06:09.046875,65.26
2019-08-15 10:06:09.062500,34.69
2019-08-15 10:06:09.078125,16.97
2019-08-15 10:06:09.093750,16.57
2019-08-15 10:06:09.109375,34.21
2019-08-15 10:06:09.125000,66.32
2019-08-15 10:06:09.140625,105.25
2019-08-15 10:06:09.156250,140.91
2019-08-15 10:06:09.171875,163.69
2019-08-15 10:06:09.187500,167.62
2019-08-15 10:06:09.203125,150.86
2019-08-15 10:06:09.218750,116.59
2019-08-15 10:06:09.234375,71.06
2019-08-15 10:06:09.250000,20.5
2019-08-15 10:06:09.265625,-31.12
2019-08-15 10:06:09.281250,-82.86
2019-08-15 10:06:09.296875,-135.47
2019-08-15 10:06:09.312500,-189.43
2019-08-15 10:06:09.328125,-243.72
2019-08-15 10:06:09.343750,-297.92
2019-08-15 10:06:09.359375,-350.79
2019-08-15 10:06:09.375000,-400.0
2019-08-15 10:06:09.390625,-442.67
2019-08-15 10:06:09.406250,-475.82
2019-08-15 10:06:09.421875,-497.46
2019-08-15 10:06:09.437500,-507.64
2019-08-15 10:06:09.453125,-508.82
2019-08-15 10:06:09.468750,-505.34
2019-08-15 10:06:09.484375,-504.58
2019-08-15 10:06:09.500000,-512.23
2019-08-15 10:06:09.515625,-529.25
2019-08-15 10:06:09.531250,-552.16
2019-08-15 10:06:09.546875,-575.56
2019-08-15 10:06:09.562500,-595.65
2019-08-15 10:06:09.578125,-612.51
2019-08-15 10:06:09.593750,-629.33
2019-08-15 10:06:09.609375,-631.06
2019-08-15 10:06:09.625000,-606.13
2019-08-15 10:06:09.640625,-547.4
2019-08-15 10:06:09.656250,-454.7
2019-08-15 10:06:09.671875,-335.1
2019-08-15 10:06:09.687500,-199.76
2019-08-15 10:06:09.703125,-61.13
2019-08-15 10:06:09.718750,68.65
2019-08-15 10:06:09.734375,179.44
2019-08-15 10:06:09.750000,264.62
2019-08-15 10:06:09.765625,321.78
2019-08-15 10:06:09.781250,353.41
2019-08-15 10:06:09.796875,364.26
2019-08-15 10:06:09.812500,360.35
2019-08-15 10:06:09.828125,348.38
2019-08-15 10:06:09.843750,334.39
2019-08-15 10:06:09.859375,322.74
2019-08-15 10:06:09.875000,315.98
2019-08-15 10:06:09.890625,314.42
2019-08-15 10:06:09.906250,313.89
2019-08-15 10:06:09.921875,301.72
2019-08-15 10:06:09.937500,268.1
2019-08-15 10:06:09.953125,207.76
2019-08-15 10:06:09.968750,122.86
2019-08-15 10:06:09.984375,23.95
2019-08-15 10:06:10.000000,-72.58
2019-08-15 10:06:10.015625,-149.11
2019-08-15 10:06:10.031250,-192.59
2019-08-15 10:06:10.046875,-200.06
2019-08-15 10:06:10.062500,-177.88
2019-08-15 10:06:10.078125,-137.22
2019-08-15 10:06:10.093750,-89.93
2019-08-15 10:06:10.109375,-44.65
2019-08-15 10:06:10.125000,-5.56
2019-08-15 10:06:10.140625,26.7
2019-08-15 10:06:10.156250,53.16
2019-08-15 10:06:10.171875,75.24
2019-08-15 10:06:10.187500,93.52
2019-08-15 10:06:10.203125,108.61
2019-08-15 10:06:10.218750,122.7
2019-08-15 10:06:10.234375,139.0
2019-08-15 10:06:10.250000,160.52
2019-08-15 10:06:10.265625,188.17
2019-08-15 10:06:10.281250,219.35
2019-08-15 10:06:10.296875,248.13
2019-08-15 10:06:10.312500,267.49
2019-08-15 10:06:10.328125,272.48
2019-08-15 10:06:10.343750,263.12
2019-08-15 10:06:10.359375,245.49
2019-08-15 10:06:10.375000,228.9
2019-08-15 10:06:10.390625,221.71
2019-08-15 10:06:10.406250,227.33
2019-08-15 10:06:10.421875,242.73
2019-08-15 10:06:10.437500,260.24
2019-08-15 10:06:10.453125,271.41
2019-08-15 10:06:10.468750,270.66
2019-08-15 10:06:10.484375,257.01
2019-08-15 10:06:10.500000,233.51
2019-08-15 10:06:10.515625,204.81
2019-08-15 10:06:10.531250,174.95
2019-08-15 10:06:10.546875,146.44
2019-08-15 10:06:10.562500,120.63
2019-08-15 10:06:10.578125,98.56
2019-08-15 10:06:10.593750,81.01
2019-08-15 10:06:10.609375,68.2
2019-08-15 10:06:10.625000,59.06
2019-08-15 10:06:10.640625,51.26
2019-08-15 10:06:10.656250,41.78
2019-08-15 10:06:10.671875,28.47
2019-08-15 10:06:10.687500,11.56
2019-08-15 10:06:10.703125,-5.89
2019-08-15 10:06:10.718750,-18.89
2019-08-15 10:06:10.734375,-22.86
2019-08-15 10:06:10.750000,-15.81
2019-08-15 10:06:10.765625,0.45
2019-08-15 10:06:10.781250,20.75
2019-08-15 10:06:10.796875,38.34
2019-08-15 10:06:10.812500,47.27
2019-08-15 10:06:10.828125,44.14
2019-08-15 10:06:10.843750,28.66
2019-08-15 10:06:10.859375,3.19
2019-08-15 10:06:10.875000,-27.88
2019-08-15 10:06:10.890625,-58.88
2019-08-15 10:06:10.906250,-83.79
2019-08-15 10:06:10.921875,-97.73
2019-08-15 10:06:10.937500,-98.31
2019-08-15 10:06:10.953125,-86.52
2019-08-15 10:06:10.968750,-66.42
2019-08-15 10:06:10.984375,-43.22
2019-08-15 10:06:11.000000,-20.69
2019-08-15 10:06:11.015625,0.57
2019-08-15 10:06:11.031250,23.17
2019-08-15 10:06:11.046875,50.8
2019-08-15 10:06:11.062500,85.25
2019-08-15 10:06:11.078125,124.64
2019-08-15 10:06:11.093750,163.6
2019-08-15 10:06:11.109375,195.87
2019-08-15 10:06:11.125000,217.63
2019-08-15 10:06:11.140625,229.31
2019-08-15 10:06:11.156250,234.74
2019-08-15 10:06:11.171875,238.42
2019-08-15 10:06:11.187500,242.37
2019-08-15 10:06:11.203125,244.67
2019-08-15 10:06:11.218750,240.85
2019-08-15 10:06:11.234375,226.48
2019-08-15 10:06:11.250000,199.87
2019-08-15 10:06:11.265625,163.15
2019-08-15 10:06:11.281250,120.85
2019-08-15 10:06:11.296875,77.12
2019-08-15 10:06:11.312500,33.59
2019-08-15 10:06:11.328125,-10.74
2019-08-15 10:06:11.343750,-57.68
2019-08-15 10:06:11.359375,-107.02
2019-08-15 10:06:11.375000,-155.24
2019-08-15 10:06:11.390625,-196.37
2019-08-15 10:06:11.406250,-224.81
2019-08-15 10:06:11.421875,-238.5
2019-08-15 10:06:11.437500,-240.22
2019-08-15 10:06:11.453125,-236.68
2019-08-15 10:06:11.468750,-235.68
2019-08-15 10:06:11.484375,-242.95
2019-08-15 10:06:11.500000,-259.78
2019-08-15 10:06:11.515625,-283.15
2019-08-15 10:06:11.531250,-307.63
2019-08-15 10:06:11.546875,-328.11
2019-08-15 10:06:11.562500,-342.06
2019-08-15 10:06:11.578125,-350.22
2019-08-15 10:06:11.593750,-355.64
2019-08-15 10:06:11.609375,-361.59
2019-08-15 10:06:11.625000,-369.66
2019-08-15 10:06:11.640625,-378.79
2019-08-15 10:06:11.656250,-385.97
2019-08-15 10:06:11.671875,-387.63
2019-08-15 10:06:11.687500,-381.58
2019-08-15 10:06:11.703125,-368.17
2019-08-15 10:06:11.718750,-349.81
2019-08-15 10:06:11.734375,-329.57
2019-08-15 10:06:11.750000,-309.34
2019-08-15 10:06:11.765625,-288.89
2019-08-15 10:06:11.781250,-266.42
2019-08-15 10:06:11.796875,-240.4
2019-08-15 10:06:11.812500,-211.22
2019-08-15 10:06:11.828125,-181.67
2019-08-15 10:06:11.843750,-156.14
2019-08-15 10:06:11.859375,-138.27
2019-08-15 10:06:11.875000,-129.09
2019-08-15 10:06:11.890625,-126.26
2019-08-15 10:06:11.906250,-124.92
2019-08-15 10:06:11.921875,-119.66
2019-08-15 10:06:11.937500,-106.73
2019-08-15 10:06:11.953125,-84.91
2019-08-15 10:06:11.968750,-55.36
2019-08-15 10:06:11.984375,-20.4
2019-08-15 10:06:12.000000,18.01
2019-08-15 10:06:12.015625,59.03
2019-08-15 10:06:12.031250,102.98
2019-08-15 10:06:12.046875,150.44
2019-08-15 10:06:12.062500,201.25
2019-08-15 10:06:12.078125,253.78
2019-08-15 10:06:12.093750,304.96
2019-08-15 10:06:12.109375,351.07
2019-08-15 10:06:12.125000,388.82
2019-08-15 10:06:12.140625,416.33
2019-08-15 10:06:12.156250,433.25
2019-08-15 10:06:12.171875,440.29
2019-08-15 10:06:12.187500,438.29
2019-08-15 10:06:12.203125,427.64
2019-08-15 10:06:12.218750,408.09
2019-08-15 10:06:12.234375,379.1
2019-08-15 10:06:12.250000,340.59
2019-08-15 10:06:12.265625,293.39
2019-08-15 10:06:12.281250,239.59
2019-08-15 10:06:12.296875,182.45
2019-08-15 10:06:12.312500,125.92
2019-08-15 10:06:12.328125,73.95
2019-08-15 10:06:12.343750,29.61
2019-08-15 10:06:12.359375,-5.66
2019-08-15 10:06:12.375000,-32.2
2019-08-15 10:06:12.390625,-51.89
2019-08-15 10:06:12.406250,-67.1
2019-08-15 10:06:12.421875,-79.66
2019-08-15 10:06:12.437500,-90.33
2019-08-15 10:06:12.453125,-99.06
2019-08-15 10:06:12.468750,-105.65
2019-08-15 10:06:12.484375,-110.5
2019-08-15 10:06:12.500000,-114.64
2019-08-15 10:06:12.515625,-119.07
2019-08-15 10:06:12.531250,-124.02
2019-08-15 10:06:12.546875,-128.25
2019-08-15 10:06:12.562500,-129.46
2019-08-15 10:06:12.578125,-125.12
2019-08-15 10:06:12.593750,-113.75
2019-08-15 10:06:12.609375,-95.53
2019-08-15 10:06:12.625000,-72.33
2019-08-15 10:06:12.640625,-46.88
2019-08-15 10:06:12.656250,-21.72
2019-08-15 10:06:12.671875,1.58
2019-08-15 10:06:12.687500,22.58
2019-08-15 10:06:12.703125,41.61
2019-08-15 10:06:12.718750,59.24
2019-08-15 10:06:12.734375,75.97
2019-08-15 10:06:12.750000,92.01
2019-08-15 10:06:12.765625,107.36
2019-08-15 10:06:12.781250,121.58
2019-08-15 10:06:12.796875,133.71
2019-08-15 10:06:12.812500,142.09
2019-08-15 10:06:12.828125,144.83
2019-08-15 10:06:12.843750,140.32
2019-08-15 10:06:12.859375,128.0
2019-08-15 10:06:12.875000,108.78
2019-08-15 10:06:12.890625,84.77
2019-08-15 10:06:12.906250,58.67
2019-08-15 10:06:12.921875,32.95
2019-08-15 10:06:12.937500,9.32
2019-08-15 10:06:12.953125,-11.45
2019-08-15 10:06:12.968750,-29.35
2019-08-15 10:06:12.984375,-44.87
2019-08-15 10:06:13.000000,-58.68
2019-08-15 10:06:13.015625,-71.25
2019-08-15 10:06:13.031250,-82.72
2019-08-15 10:06:13.046875,-92.68
2019-08-15 10:06:13.062500,-100.31
2019-08-15 10:06:13.078125,-104.71
2019-08-15 10:06:13.093750,-105.33
2019-08-15 10:06:13.109375,-102.23
2019-08-15 10:06:13.125000,-96.16
2019-08-15 10:06:13.140625,-88.39
2019-08-15 10:06:13.156250,-80.35
2019-08-15 10:06:13.171875,-73.21
2019-08-15 10:06:13.187500,-67.62
2019-08-15 10:06:13.203125,-63.55
2019-08-15 10:06:13.218750,-60.26
2019-08-15 10:06:13.234375,-56.61
2019-08-15 10:06:13.250000,-51.6
2019-08-15 10:06:13.265625,-44.7
2019-08-15 10:06:13.281250,-36.14
2019-08-15 10:06:13.296875,-26.63
2019-08-15 10:06:13.312500,-17.0
2019-08-15 10:06:13.328125,-7.82
2019-08-15 10:06:13.343750,0.56
2019-08-15 10:06:13.359375,7.69
2019-08-15 10:06:13.375000,12.92
2019-08-15 10:06:13.390625,15.46
2019-08-15 10:06:13.406250,14.98
2019-08-15 10:06:13.421875,12.0
2019-08-15 10:06:13.437500,7.94
2019-08-15 10:06:13.453125,4.44
2019-08-15 10:06:13.468750,2.66
2019-08-15 10:06:13.484375,2.67
2019-08-15 10:06:13.500000,3.62
2019-08-15 10:06:13.515625,4.41
2019-08-15 10:06:13.531250,4.39
2019-08-15 10:06:13.546875,3.63
2019-08-15 10:06:13.562500,2.77
2019-08-15 10:06:13.578125,2.75
2019-08-15 10:06:13.593750,4.61
2019-08-15 10:06:13.609375,9.56
2019-08-15 10:06:13.625000,18.98
2019-08-15 10:06:13.640625,34.06
2019-08-15 10:06:13.656250,55.19
2019-08-15 10:06:13.671875,81.44
2019-08-15 10:06:13.687500,110.58
2019-08-15 10:06:13.703125,139.78
2019-08-15 10:06:13.718750,166.85
2019-08-15 10:06:13.734375,190.94
2019-08-15 10:06:13.750000,212.47
2019-08-15 10:06:13.765625,232.27
2019-08-15 10:06:13.781250,250.32
2019-08-15 10:06:13.796875,265.05
2019-08-15 10:06:13.812500,273.74
2019-08-15 10:06:13.828125,273.78
2019-08-15 10:06:13.843750,264.15
2019-08-15 10:06:13.859375,246.25
2019-08-15 10:06:13.875000,223.51
2019-08-15 10:06:13.890625,199.98
2019-08-15 10:06:13.906250,178.68
2019-08-15 10:06:13.921875,160.74
2019-08-15 10:06:13.937500,145.69
2019-08-15 10:06:13.953125,132.55
2019-08-15 10:06:13.968750,120.96
2019-08-15 10:06:13.984375,111.35
2019-08-15 10:06:14.000000,104.3
2019-08-15 10:06:14.015625,99.33
2019-08-15 10:06:14.031250,94.37
2019-08-15 10:06:14.046875,86.42
2019-08-15 10:06:14.062500,73.01
2019-08-15 10:06:14.078125,53.86
2019-08-15 10:06:14.093750,31.25
2019-08-15 10:06:14.109375,9.21
2019-08-15 10:06:14.125000,-8.36
2019-08-15 10:06:14.140625,-19.28
2019-08-15 10:06:14.156250,-23.75
2019-08-15 10:06:14.171875,-23.64
2019-08-15 10:06:14.187500,-21.24
2019-08-15 10:06:14.203125,-18.1
2019-08-15 10:06:14.218750,-14.71
2019-08-15 10:06:14.234375,-10.98
2019-08-15 10:06:14.250000,-6.86
2019-08-15 10:06:14.265625,-2.7
2019-08-15 10:06:14.281250,0.89
2019-08-15 10:06:14.296875,3.46
2019-08-15 10:06:14.312500,5.23
2019-08-15 10:06:14.328125,7.05
2019-08-15 10:06:14.343750,10.1
2019-08-15 10:06:14.359375,15.23
2019-08-15 10:06:14.375000,22.59
2019-08-15 10:06:14.390625,31.49
2019-08-15 10:06:14.406250,40.66
2019-08-15 10:06:14.421875,48.83
2019-08-15 10:06:14.437500,55.38
2019-08-15 10:06:14.453125,60.48
2019-08-15 10:06:14.468750,64.83
2019-08-15 10:06:14.484375,68.79
2019-08-15 10:06:14.500000,71.55
2019-08-15 10:06:14.515625,70.86
2019-08-15 10:06:14.531250,63.59
2019-08-15 10:06:14.546875,46.8
2019-08-15 10:06:14.562500,18.97
2019-08-15 10:06:14.578125,-19.2
2019-08-15 10:06:14.593750,-64.77
2019-08-15 10:06:14.609375,-113.03
2019-08-15 10:06:14.625000,-158.64
2019-08-15 10:06:14.640625,-196.63
2019-08-15 10:06:14.656250,-223.41
2019-08-15 10:06:14.671875,-237.38
2019-08-15 10:06:14.687500,-239.15
2019-08-15 10:06:14.703125,-231.37
2019-08-15 10:06:14.718750,-217.93
2019-08-15 10:06:14.734375,-202.89
2019-08-15 10:06:14.750000,-189.42
2019-08-15 10:06:14.765625,-179.11
2019-08-15 10:06:14.781250,-172.18
2019-08-15 10:06:14.796875,-168.34
2019-08-15 10:06:14.812500,-167.63
2019-08-15 10:06:14.828125,-170.78
2019-08-15 10:06:14.843750,-178.82
2019-08-15 10:06:14.859375,-192.13
2019-08-15 10:06:14.875000,-209.8
2019-08-15 10:06:14.890625,-229.49
2019-08-15 10:06:14.906250,-248.27
2019-08-15 10:06:14.921875,-263.5
2019-08-15 10:06:14.937500,-273.25
2019-08-15 10:06:14.953125,-276.31
2019-08-15 10:06:14.968750,-271.58
2019-08-15 10:06:14.984375,-257.8
2019-08-15 10:06:15.000000,-233.98
2019-08-15 10:06:15.015625,-200.18
2019-08-15 10:06:15.031250,-157.92
2019-08-15 10:06:15.046875,-109.96
2019-08-15 10:06:15.062500,-59.36
2019-08-15 10:06:15.078125,-8.8
2019-08-15 10:06:15.093750,39.21
2019-08-15 10:06:15.109375,81.35
2019-08-15 10:06:15.125000,112.61
2019-08-15 10:06:15.140625,127.02
2019-08-15 10:06:15.156250,120.07
2019-08-15 10:06:15.171875,91.98
2019-08-15 10:06:15.187500,48.93
2019-08-15 10:06:15.203125,1.47
2019-08-15 10:06:15.218750,-39.23
2019-08-15 10:06:15.234375,-65.68
2019-08-15 10:06:15.250000,-75.96
2019-08-15 10:06:15.265625,-72.81
2019-08-15 10:06:15.281250,-61.01
2019-08-15 10:06:15.296875,-45.29
2019-08-15 10:06:15.312500,-29.22
2019-08-15 10:06:15.328125,-16.75
2019-08-15 10:06:15.343750,-12.72
2019-08-15 10:06:15.359375,-21.59
2019-08-15 10:06:15.375000,-44.6
2019-08-15 10:06:15.390625,-77.1
2019-08-15 10:06:15.406250,-108.84
2019-08-15 10:06:15.421875,-127.61
2019-08-15 10:06:15.437500,-124.46
2019-08-15 10:06:15.453125,-96.53
2019-08-15 10:06:15.468750,-48.56
2019-08-15 10:06:15.484375,9.94
2019-08-15 10:06:15.500000,68.85
2019-08-15 10:06:15.515625,120.8
2019-08-15 10:06:15.531250,162.62
2019-08-15 10:06:15.546875,194.37
2019-08-15 10:06:15.562500,217.43
2019-08-15 10:06:15.578125,233.03
2019-08-15 10:06:15.593750,243.25
2019-08-15 10:06:15.609375,250.12
2019-08-15 10:06:15.625000,255.8
2019-08-15 10:06:15.640625,262.47
2019-08-15 10:06:15.656250,272.11
2019-08-15 10:06:15.671875,286.48
2019-08-15 10:06:15.687500,306.64
2019-08-15 10:06:15.703125,332.03
2019-08-15 10:06:15.718750,350.84
2019-08-15 10:06:15.734375,351.57
2019-08-15 10:06:15.750000,326.63
2019-08-15 10:06:15.765625,277.19
2019-08-15 10:06:15.781250,212.84
2019-08-15 10:06:15.796875,145.88
2019-08-15 10:06:15.812500,85.36
2019-08-15 10:06:15.828125,34.56
2019-08-15 10:06:15.843750,-7.77
2019-08-15 10:06:15.859375,-44.51
2019-08-15 10:06:15.875000,-76.12
2019-08-15 10:06:15.890625,-101.15
2019-08-15 10:06:15.906250,-117.38
2019-08-15 10:06:15.921875,-123.85
2019-08-15 10:06:15.937500,-122.03
2019-08-15 10:06:15.953125,-115.02
2019-08-15 10:06:15.968750,-105.9
2019-08-15 10:06:15.984375,-96.73
2019-08-15 10:06:16.000000,-88.53
2019-08-15 10:06:16.015625,-80.79
2019-08-15 10:06:16.031250,-73.02
2019-08-15 10:06:16.046875,-65.34
2019-08-15 10:06:16.062500,-58.6
2019-08-15 10:06:16.078125,-53.88
2019-08-15 10:06:16.093750,-52.02
2019-08-15 10:06:16.109375,-53.26
2019-08-15 10:06:16.125000,-57.59
2019-08-15 10:06:16.140625,-65.15
2019-08-15 10:06:16.156250,-75.84
2019-08-15 10:06:16.171875,-89.75
2019-08-15 10:06:16.187500,-105.72
2019-08-15 10:06:16.203125,-122.72
2019-08-15 10:06:16.218750,-140.38
2019-08-15 10:06:16.234375,-158.58
2019-08-15 10:06:16.250000,-177.09
2019-08-15 10:06:16.265625,-194.81
2019-08-15 10:06:16.281250,-208.96
2019-08-15 10:06:16.296875,-214.82
2019-08-15 10:06:16.312500,-207.43
2019-08-15 10:06:16.328125,-186.34
2019-08-15 10:06:16.343750,-151.06
2019-08-15 10:06:16.359375,-105.49
2019-08-15 10:06:16.375000,-56.22
2019-08-15 10:06:16.390625,-9.7
2019-08-15 10:06:16.406250,30.07
2019-08-15 10:06:16.421875,62.19
2019-08-15 10:06:16.437500,87.47
2019-08-15 10:06:16.453125,105.83
2019-08-15 10:06:16.468750,115.29
2019-08-15 10:06:16.484375,113.24
2019-08-15 10:06:16.500000,98.3
2019-08-15 10:06:16.515625,72.8
2019-08-15 10:06:16.531250,43.03
2019-08-15 10:06:16.546875,17.09
2019-08-15 10:06:16.562500,1.47
2019-08-15 10:06:16.578125,-1.57
2019-08-15 10:06:16.593750,4.99
2019-08-15 10:06:16.609375,14.91
2019-08-15 10:06:16.625000,22.29
2019-08-15 10:06:16.640625,23.95
2019-08-15 10:06:16.656250,20.53
2019-08-15 10:06:16.671875,15.68
2019-08-15 10:06:16.687500,13.42
2019-08-15 10:06:16.703125,16.98
2019-08-15 10:06:16.718750,27.79
2019-08-15 10:06:16.734375,44.29
2019-08-15 10:06:16.750000,62.09
2019-08-15 10:06:16.765625,75.59
2019-08-15 10:06:16.781250,79.12
2019-08-15 10:06:16.796875,68.8
2019-08-15 10:06:16.812500,44.27
2019-08-15 10:06:16.828125,9.53
2019-08-15 10:06:16.843750,-28.65
2019-08-15 10:06:16.859375,-59.66
2019-08-15 10:06:16.875000,-74.24
2019-08-15 10:06:16.890625,-69.55
2019-08-15 10:06:16.906250,-49.59
2019-08-15 10:06:16.921875,-22.87
2019-08-15 10:06:16.937500,1.47
2019-08-15 10:06:16.953125,16.89
2019-08-15 10:06:16.968750,19.7
2019-08-15 10:06:16.984375,7.53
2019-08-15 10:06:17.000000,-19.81
2019-08-15 10:06:17.015625,-59.31
2019-08-15 10:06:17.031250,-104.24
2019-08-15 10:06:17.046875,-144.16
2019-08-15 10:06:17.062500,-167.32
2019-08-15 10:06:17.078125,-165.93
2019-08-15 10:06:17.093750,-139.67
2019-08-15 10:06:17.109375,-95.22
2019-08-15 10:06:17.125000,-42.0
2019-08-15 10:06:17.140625,12.86
2019-08-15 10:06:17.156250,65.61
2019-08-15 10:06:17.171875,114.16
2019-08-15 10:06:17.187500,157.99
2019-08-15 10:06:17.203125,195.74
2019-08-15 10:06:17.218750,224.39
2019-08-15 10:06:17.234375,241.04
2019-08-15 10:06:17.250000,245.24
2019-08-15 10:06:17.265625,239.6
2019-08-15 10:06:17.281250,228.36
2019-08-15 10:06:17.296875,220.02
2019-08-15 10:06:17.312500,215.35
2019-08-15 10:06:17.328125,213.34
2019-08-15 10:06:17.343750,213.09
2019-08-15 10:06:17.359375,214.34
2019-08-15 10:06:17.375000,217.37
2019-08-15 10:06:17.390625,222.14
2019-08-15 10:06:17.406250,227.4
2019-08-15 10:06:17.421875,230.7
2019-08-15 10:06:17.437500,225.33
2019-08-15 10:06:17.453125,206.5
2019-08-15 10:06:17.468750,173.26
2019-08-15 10:06:17.484375,128.24
2019-08-15 10:06:17.500000,76.53
2019-08-15 10:06:17.515625,24.17
2019-08-15 10:06:17.531250,-23.65
2019-08-15 10:06:17.546875,-63.7
2019-08-15 10:06:17.562500,-95.1
2019-08-15 10:06:17.578125,-119.19
2019-08-15 10:06:17.593750,-138.59
2019-08-15 10:06:17.609375,-155.78
2019-08-15 10:06:17.625000,-172.79
2019-08-15 10:06:17.640625,-190.89
2019-08-15 10:06:17.656250,-210.12
2019-08-15 10:06:17.671875,-229.06
2019-08-15 10:06:17.687500,-245.29
2019-08-15 10:06:17.703125,-256.23
2019-08-15 10:06:17.718750,-260.44
2019-08-15 10:06:17.734375,-258.53
2019-08-15 10:06:17.750000,-252.64
2019-08-15 10:06:17.765625,-245.58
2019-08-15 10:06:17.781250,-239.38
2019-08-15 10:06:17.796875,-234.11
2019-08-15 10:06:17.812500,-227.82
2019-08-15 10:06:17.828125,-217.69
2019-08-15 10:06:17.843750,-201.47
2019-08-15 10:06:17.859375,-178.65
2019-08-15 10:06:17.875000,-150.77
2019-08-15 10:06:17.890625,-120.92
2019-08-15 10:06:17.906250,-92.96
2019-08-15 10:06:17.921875,-70.54
2019-08-15 10:06:17.937500,-55.75
2019-08-15 10:06:17.953125,-48.31
2019-08-15 10:06:17.968750,-45.45
2019-08-15 10:06:17.984375,-42.89
2019-08-15 10:06:18.000000,-36.76
2019-08-15 10:06:18.015625,-25.28
2019-08-15 10:06:18.031250,-9.76
2019-08-15 10:06:18.046875,6.09
2019-08-15 10:06:18.062500,18.05
2019-08-15 10:06:18.078125,23.54
2019-08-15 10:06:18.093750,22.68
2019-08-15 10:06:18.109375,17.74
2019-08-15 10:06:18.125000,11.74
2019-08-15 10:06:18.140625,6.9
2019-08-15 10:06:18.156250,4.2
2019-08-15 10:06:18.171875,3.82
2019-08-15 10:06:18.187500,5.91
2019-08-15 10:06:18.203125,11.0
2019-08-15 10:06:18.218750,19.86
2019-08-15 10:06:18.234375,32.57
2019-08-15 10:06:18.250000,48.03
2019-08-15 10:06:18.265625,63.96
2019-08-15 10:06:18.281250,77.47
2019-08-15 10:06:18.296875,86.17
2019-08-15 10:06:18.312500,89.07
2019-08-15 10:06:18.328125,86.95
2019-08-15 10:06:18.343750,81.97
2019-08-15 10:06:18.359375,76.7
2019-08-15 10:06:18.375000,72.96
2019-08-15 10:06:18.390625,71.17
2019-08-15 10:06:18.406250,70.42
2019-08-15 10:06:18.421875,69.1
2019-08-15 10:06:18.437500,65.94
2019-08-15 10:06:18.453125,60.68
2019-08-15 10:06:18.468750,54.16
2019-08-15 10:06:18.484375,47.74
2019-08-15 10:06:18.500000,42.55
2019-08-15 10:06:18.515625,38.83
2019-08-15 10:06:18.531250,35.95
2019-08-15 10:06:18.546875,32.92
2019-08-15 10:06:18.562500,28.95
2019-08-15 10:06:18.578125,24.02
2019-08-15 10:06:18.593750,18.66
2019-08-15 10:06:18.609375,13.57
2019-08-15 10:06:18.625000,9.18
2019-08-15 10:06:18.640625,5.47
2019-08-15 10:06:18.656250,2.22
2019-08-15 10:06:18.671875,-0.79
2019-08-15 10:06:18.687500,-3.43
2019-08-15 10:06:18.703125,-5.44
2019-08-15 10:06:18.718750,-6.56
2019-08-15 10:06:18.734375,-6.87
2019-08-15 10:06:18.750000,-6.8
2019-08-15 10:06:18.765625,-7.01
2019-08-15 10:06:18.781250,-8.08
2019-08-15 10:06:18.796875,-10.29
2019-08-15 10:06:18.812500,-13.57
2019-08-15 10:06:18.828125,-17.52
2019-08-15 10:06:18.843750,-21.77
2019-08-15 10:06:18.859375,-26.13
2019-08-15 10:06:18.875000,-30.77
2019-08-15 10:06:18.890625,-35.92
2019-08-15 10:06:18.906250,-41.39
2019-08-15 10:06:18.921875,-46.26
2019-08-15 10:06:18.937500,-48.83
2019-08-15 10:06:18.953125,-47.2
2019-08-15 10:06:18.968750,-40.08
2019-08-15 10:06:18.984375,-27.56
2019-08-15 10:06:19.000000,-11.21
2019-08-15 10:06:19.015625,6.48
2019-08-15 10:06:19.031250,22.88
2019-08-15 10:06:19.046875,36.11
2019-08-15 10:06:19.062500,45.02
2019-08-15 10:06:19.078125,48.93
2019-08-15 10:06:19.093750,46.94
2019-08-15 10:06:19.109375,37.85
2019-08-15 10:06:19.125000,20.57
2019-08-15 10:06:19.140625,-4.84
2019-08-15 10:06:19.156250,-36.41
2019-08-15 10:06:19.171875,-70.5
2019-08-15 10:06:19.187500,-102.72
2019-08-15 10:06:19.203125,-129.3
2019-08-15 10:06:19.218750,-148.4
2019-08-15 10:06:19.234375,-160.34
2019-08-15 10:06:19.250000,-166.94
2019-08-15 10:06:19.265625,-170.24
2019-08-15 10:06:19.281250,-171.4
2019-08-15 10:06:19.296875,-170.27
2019-08-15 10:06:19.312500,-165.97
2019-08-15 10:06:19.328125,-157.8
2019-08-15 10:06:19.343750,-146.05
2019-08-15 10:06:19.359375,-132.14
2019-08-15 10:06:19.375000,-118.04
2019-08-15 10:06:19.390625,-105.29
2019-08-15 10:06:19.406250,-94.16
2019-08-15 10:06:19.421875,-83.39
2019-08-15 10:06:19.437500,-70.63
2019-08-15 10:06:19.453125,-53.55
2019-08-15 10:06:19.468750,-31.08
2019-08-15 10:06:19.484375,-4.17
2019-08-15 10:06:19.500000,24.09
2019-08-15 10:06:19.515625,49.39
2019-08-15 10:06:19.531250,67.51
2019-08-15 10:06:19.546875,75.57
2019-08-15 10:06:19.562500,72.72
2019-08-15 10:06:19.578125,60.05
2019-08-15 10:06:19.593750,39.72
2019-08-15 10:06:19.609375,14.29
2019-08-15 10:06:19.625000,-13.37
2019-08-15 10:06:19.640625,-39.66
2019-08-15 10:06:19.656250,-59.85
2019-08-15 10:06:19.671875,-68.81
2019-08-15 10:06:19.687500,-62.87
2019-08-15 10:06:19.703125,-41.84
2019-08-15 10:06:19.718750,-9.88
2019-08-15 10:06:19.734375,25.88
2019-08-15 10:06:19.750000,58.63
2019-08-15 10:06:19.765625,85.28
2019-08-15 10:06:19.781250,107.76
2019-08-15 10:06:19.796875,131.37
2019-08-15 10:06:19.812500,160.91
2019-08-15 10:06:19.828125,197.0
2019-08-15 10:06:19.843750,234.83
2019-08-15 10:06:19.859375,266.05
2019-08-15 10:06:19.875000,282.56
2019-08-15 10:06:19.890625,280.1
2019-08-15 10:06:19.906250,259.36
2019-08-15 10:06:19.921875,224.72
2019-08-15 10:06:19.937500,181.77
2019-08-15 10:06:19.953125,135.13
2019-08-15 10:06:19.968750,87.91
2019-08-15 10:06:19.984375,42.38
2019-08-15 10:06:20.000000,1.05
2019-08-15 10:06:20.015625,-33.0
2019-08-15 10:06:20.031250,-56.69
2019-08-15 10:06:20.046875,-68.29
2019-08-15 10:06:20.062500,-68.54
2019-08-15 10:06:20.078125,-60.68
2019-08-15 10:06:20.093750,-49.67
2019-08-15 10:06:20.109375,-40.49
2019-08-15 10:06:20.125000,-36.32
2019-08-15 10:06:20.140625,-37.48
2019-08-15 10:06:20.156250,-41.53
2019-08-15 10:06:20.171875,-44.52
2019-08-15 10:06:20.187500,-42.9
2019-08-15 10:06:20.203125,-35.02
2019-08-15 10:06:20.218750,-21.65
2019-08-15 10:06:20.234375,-5.41
2019-08-15 10:06:20.250000,10.78
2019-08-15 10:06:20.265625,25.16
2019-08-15 10:06:20.281250,37.64
2019-08-15 10:06:20.296875,49.41
2019-08-15 10:06:20.312500,61.64
2019-08-15 10:06:20.328125,74.41
2019-08-15 10:06:20.343750,86.34
2019-08-15 10:06:20.359375,95.42
2019-08-15 10:06:20.375000,100.18
2019-08-15 10:06:20.390625,100.9
2019-08-15 10:06:20.406250,99.6
2019-08-15 10:06:20.421875,99.16
2019-08-15 10:06:20.437500,101.97
2019-08-15 10:06:20.453125,108.75
2019-08-15 10:06:20.468750,118.54
2019-08-15 10:06:20.484375,129.3
2019-08-15 10:06:20.500000,139.09
2019-08-15 10:06:20.515625,146.54
2019-08-15 10:06:20.531250,150.84
2019-08-15 10:06:20.546875,151.33
2019-08-15 10:06:20.562500,147.09
2019-08-15 10:06:20.578125,137.24
2019-08-15 10:06:20.593750,121.52
2019-08-15 10:06:20.609375,100.77
2019-08-15 10:06:20.625000,77.0
2019-08-15 10:06:20.640625,52.65
2019-08-15 10:06:20.656250,29.71
2019-08-15 10:06:20.671875,9.12
2019-08-15 10:06:20.687500,-9.17
2019-08-15 10:06:20.703125,-25.49
2019-08-15 10:06:20.718750,-39.73
2019-08-15 10:06:20.734375,-51.11
2019-08-15 10:06:20.750000,-58.6
2019-08-15 10:06:20.765625,-61.77
2019-08-15 10:06:20.781250,-61.4
2019-08-15 10:06:20.796875,-59.29
2019-08-15 10:06:20.812500,-57.31
2019-08-15 10:06:20.828125,-56.28
2019-08-15 10:06:20.843750,-55.28
2019-08-15 10:06:20.859375,-52.01
2019-08-15 10:06:20.875000,-44.11
2019-08-15 10:06:20.890625,-30.55
2019-08-15 10:06:20.906250,-12.47
2019-08-15 10:06:20.921875,7.05
2019-08-15 10:06:20.937500,24.28
2019-08-15 10:06:20.953125,36.33
2019-08-15 10:06:20.968750,42.12
2019-08-15 10:06:20.984375,42.35
2019-08-15 10:06:21.000000,38.67
2019-08-15 10:06:21.015625,32.54
2019-08-15 10:06:21.031250,24.45
2019-08-15 10:06:21.046875,13.99
2019-08-15 10:06:21.062500,0.36
2019-08-15 10:06:21.078125,-16.71
2019-08-15 10:06:21.093750,-36.32
2019-08-15 10:06:21.109375,-56.32
2019-08-15 10:06:21.125000,-73.91
2019-08-15 10:06:21.140625,-86.67
2019-08-15 10:06:21.156250,-93.44
2019-08-15 10:06:21.171875,-94.74
2019-08-15 10:06:21.187500,-92.35
2019-08-15 10:06:21.203125,-88.2
2019-08-15 10:06:21.218750,-83.48
2019-08-15 10:06:21.234375,-78.2
2019-08-15 10:06:21.250000,-71.63
2019-08-15 10:06:21.265625,-63.34
2019-08-15 10:06:21.281250,-54.15
2019-08-15 10:06:21.296875,-46.33
2019-08-15 10:06:21.312500,-42.71
2019-08-15 10:06:21.328125,-45.34
2019-08-15 10:06:21.343750,-54.08
2019-08-15 10:06:21.359375,-66.47
2019-08-15 10:06:21.375000,-78.74
2019-08-15 10:06:21.390625,-87.48
2019-08-15 10:06:21.406250,-91.01
2019-08-15 10:06:21.421875,-89.89
2019-08-15 10:06:21.437500,-86.19
2019-08-15 10:06:21.453125,-82.19
2019-08-15 10:06:21.468750,-79.25
2019-08-15 10:06:21.484375,-77.28
2019-08-15 10:06:21.500000,-75.29
2019-08-15 10:06:21.515625,-72.11
2019-08-15 10:06:21.531250,-67.14
2019-08-15 10:06:21.546875,-60.56
2019-08-15 10:06:21.562500,-53.15
2019-08-15 10:06:21.578125,-45.79
2019-08-15 10:06:21.593750,-38.97
2019-08-15 10:06:21.609375,-32.59
2019-08-15 10:06:21.625000,-26.07
2019-08-15 10:06:21.640625,-18.8
2019-08-15 10:06:21.656250,-10.43
2019-08-15 10:06:21.671875,-1.18
2019-08-15 10:06:21.687500,8.19
2019-08-15 10:06:21.703125,16.73
2019-08-15 10:06:21.718750,23.7
2019-08-15 10:06:21.734375,28.96
2019-08-15 10:06:21.750000,32.87
2019-08-15 10:06:21.765625,36.0
2019-08-15 10:06:21.781250,38.55
2019-08-15 10:06:21.796875,40.12
2019-08-15 10:06:21.812500,39.71
2019-08-15 10:06:21.828125,36.31
2019-08-15 10:06:21.843750,29.54
2019-08-15 10:06:21.859375,20.18
2019-08-15 10:06:21.875000,10.04
2019-08-15 10:06:21.890625,1.29
2019-08-15 10:06:21.906250,-4.46
2019-08-15 10:06:21.921875,-6.97
2019-08-15 10:06:21.937500,-7.41
2019-08-15 10:06:21.953125,-7.75
2019-08-15 10:06:21.968750,-9.66
2019-08-15 10:06:21.984375,-13.56
2019-08-15 10:06:22.000000,-18.5
2019-08-15 10:06:22.015625,-22.79
2019-08-15 10:06:22.031250,-25.1
2019-08-15 10:06:22.046875,-25.22
2019-08-15 10:06:22.062500,-23.97
2019-08-15 10:06:22.078125,-22.56
2019-08-15 10:06:22.093750,-21.64
2019-08-15 10:06:22.109375,-21.04
2019-08-15 10:06:22.125000,-20.01
2019-08-15 10:06:22.140625,-18.07
2019-08-15 10:06:22.156250,-15.46
2019-08-15 10:06:22.171875,-13.12
2019-08-15 10:06:22.187500,-11.96
2019-08-15 10:06:22.203125,-12.19
2019-08-15 10:06:22.218750,-12.98
2019-08-15 10:06:22.234375,-12.78
2019-08-15 10:06:22.250000,-9.95
2019-08-15 10:06:22.265625,-3.41
2019-08-15 10:06:22.281250,7.05
2019-08-15 10:06:22.296875,20.83
2019-08-15 10:06:22.312500,36.71
2019-08-15 10:06:22.328125,53.29
2019-08-15 10:06:22.343750,69.11
2019-08-15 10:06:22.359375,82.99
2019-08-15 10:06:22.375000,94.22
2019-08-15 10:06:22.390625,102.78
2019-08-15 10:06:22.406250,109.29
2019-08-15 10:06:22.421875,114.72
2019-08-15 10:06:22.437500,119.85
2019-08-15 10:06:22.453125,124.59
2019-08-15 10:06:22.468750,127.8
2019-08-15 10:06:22.484375,127.29
2019-08-15 10:06:22.500000,120.57
2019-08-15 10:06:22.515625,105.79
2019-08-15 10:06:22.531250,82.65
2019-08-15 10:06:22.546875,52.89
2019-08-15 10:06:22.562500,19.93
2019-08-15 10:06:22.578125,-12.01
2019-08-15 10:06:22.593750,-39.33
2019-08-15 10:06:22.609375,-60.03
2019-08-15 10:06:22.625000,-74.17
2019-08-15 10:06:22.640625,-83.49
2019-08-15 10:06:22.656250,-90.52
2019-08-15 10:06:22.671875,-97.6
2019-08-15 10:06:22.687500,-106.15
2019-08-15 10:06:22.703125,-116.35
2019-08-15 10:06:22.718750,-127.23
2019-08-15 10:06:22.734375,-137.1
2019-08-15 10:06:22.750000,-144.05
2019-08-15 10:06:22.765625,-146.41
2019-08-15 10:06:22.781250,-143.13
2019-08-15 10:06:22.796875,-133.83
2019-08-15 10:06:22.812500,-119.1
2019-08-15 10:06:22.828125,-100.47
2019-08-15 10:06:22.843750,-80.37
2019-08-15 10:06:22.859375,-61.78
2019-08-15 10:06:22.875000,-47.29
2019-08-15 10:06:22.890625,-37.83
2019-08-15 10:06:22.906250,-32.16
2019-08-15 10:06:22.921875,-27.31
2019-08-15 10:06:22.937500,-20.15
2019-08-15 10:06:22.953125,-9.45
2019-08-15 10:06:22.968750,3.12
2019-08-15 10:06:22.984375,13.62
2019-08-15 10:06:23.000000,18.11
2019-08-15 10:06:23.015625,15.21
2019-08-15 10:06:23.031250,7.34
2019-08-15 10:06:23.046875,-0.32
2019-08-15 10:06:23.062500,-2.63
2019-08-15 10:06:23.078125,2.74
2019-08-15 10:06:23.093750,14.0
2019-08-15 10:06:23.109375,26.36
2019-08-15 10:06:23.125000,34.63
2019-08-15 10:06:23.140625,35.99
2019-08-15 10:06:23.156250,31.19
2019-08-15 10:06:23.171875,23.96
2019-08-15 10:06:23.187500,19.25
2019-08-15 10:06:23.203125,21.23
2019-08-15 10:06:23.218750,31.84
2019-08-15 10:06:23.234375,50.15
2019-08-15 10:06:23.250000,72.34
2019-08-15 10:06:23.265625,92.34
2019-08-15 10:06:23.281250,103.14
2019-08-15 10:06:23.296875,99.08
2019-08-15 10:06:23.312500,78.08
2019-08-15 10:06:23.328125,43.28
2019-08-15 10:06:23.343750,2.83
