2019-08-05 20:10:47.000000,-0.0
2019-08-05 20:10:47.015625,-0.0
2019-08-05 20:10:47.031250,-0.0
2019-08-05 20:10:47.046875,-0.0
2019-08-05 20:10:47.062500,-0.0
2019-08-05 20:10:47.078125,-0.0
2019-08-05 20:10:47.093750,-0.0
2019-08-05 20:10:47.109375,-0.0
2019-08-05 20:10:47.125000,-0.0
2019-08-05 20:10:47.140625,-0.0
2019-08-05 20:10:47.156250,0.0
2019-08-05 20:10:47.171875,0.01
2019-08-05 20:10:47.187500,0.01
2019-08-05 20:10:47.203125,-0.0
2019-08-05 20:10:47.218750,-0.03
2019-08-05 20:10:47.234375,-0.05
2019-08-05 20:10:47.250000,-0.05
2019-08-05 20:10:47.265625,0.0
2019-08-05 20:10:47.281250,0.13
2019-08-05 20:10:47.296875,0.36
2019-08-05 20:10:47.312500,0.66
2019-08-05 20:10:47.328125,1.01
2019-08-05 20:10:47.343750,1.37
2019-08-05 20:10:47.359375,1.72
2019-08-05 20:10:47.375000,2.06
2019-08-05 20:10:47.390625,2.4
2019-08-05 20:10:47.406250,2.79
2019-08-05 20:10:47.421875,3.24
2019-08-05 20:10:47.437500,3.8
2019-08-05 20:10:47.453125,4.42
2019-08-05 20:10:47.468750,5.06
2019-08-05 20:10:47.484375,5.66
2019-08-05 20:10:47.500000,6.2
2019-08-05 20:10:47.515625,6.68
2019-08-05 20:10:47.531250,7.16
2019-08-05 20:10:47.546875,7.69
2019-08-05 20:10:47.562500,8.34
2019-08-05 20:10:47.578125,9.19
2019-08-05 20:10:47.593750,10.17
2019-08-05 20:10:47.609375,11.16
2019-08-05 20:10:47.625000,12.06
2019-08-05 20:10:47.640625,12.82
2019-08-05 20:10:47.656250,13.49
2019-08-05 20:10:47.671875,14.24
2019-08-05 20:10:47.687500,15.27
2019-08-05 20:10:47.703125,16.75
2019-08-05 20:10:47.718750,18.88
2019-08-05 20:10:47.734375,21.47
2019-08-05 20:10:47.750000,24.25
2019-08-05 20:10:47.765625,26.93
2019-08-05 20:10:47.781250,29.34
2019-08-05 20:10:47.796875,31.56
2019-08-05 20:10:47.812500,33.89
2019-08-05 20:10:47.828125,36.78
2019-08-05 20:10:47.843750,40.54
2019-08-05 20:10:47.859375,45.54
2019-08-05 20:10:47.875000,51.44
2019-08-05 20:10:47.890625,57.71
2019-08-05 20:10:47.906250,63.77
2019-08-05 20:10:47.921875,69.27
2019-08-05 20:10:47.937500,74.29
2019-08-05 20:10:47.953125,79.32
2019-08-05 20:10:47.968750,85.03
2019-08-05 20:10:47.984375,91.97
2019-08-05 20:10:48.000000,100.65
2019-08-05 20:10:48.015625,110.58
2019-08-05 20:10:48.031250,120.97
2019-08-05 20:10:48.046875,130.92
2019-08-05 20:10:48.062500,139.9
2019-08-05 20:10:48.078125,147.95
2019-08-05 20:10:48.093750,155.7
2019-08-05 20:10:48.109375,164.49
2019-08-05 20:10:48.125000,172.98
2019-08-05 20:10:48.140625,183.45
2019-08-05 20:10:48.156250,196.49
2019-08-05 20:10:48.171875,212.2
2019-08-05 20:10:48.187500,229.37
2019-08-05 20:10:48.203125,245.15
2019-08-05 20:10:48.218750,255.23
2019-08-05 20:10:48.234375,254.99
2019-08-05 20:10:48.250000,241.03
2019-08-05 20:10:48.265625,212.45
2019-08-05 20:10:48.281250,171.63
2019-08-05 20:10:48.296875,122.38
2019-08-05 20:10:48.312500,69.05
2019-08-05 20:10:48.328125,14.84
2019-08-05 20:10:48.343750,-38.59
2019-08-05 20:10:48.359375,-90.94
2019-08-05 20:10:48.375000,-142.32
2019-08-05 20:10:48.390625,-192.46
2019-08-05 20:10:48.406250,-240.56
2019-08-05 20:10:48.421875,-285.18
2019-08-05 20:10:48.437500,-325.44
2019-08-05 20:10:48.453125,-360.66
2019-08-05 20:10:48.468750,-390.33
2019-08-05 20:10:48.484375,-413.57
2019-08-05 20:10:48.500000,-429.1
2019-08-05 20:10:48.515625,-435.41
2019-08-05 20:10:48.531250,-431.13
2019-08-05 20:10:48.546875,-415.66
2019-08-05 20:10:48.562500,-389.29
2019-08-05 20:10:48.578125,-353.65
2019-08-05 20:10:48.593750,-311.16
2019-08-05 20:10:48.609375,-265.37
2019-08-05 20:10:48.625000,-219.21
2019-08-05 20:10:48.640625,-174.75
2019-08-05 20:10:48.656250,-133.12
2019-08-05 20:10:48.671875,-94.72
2019-08-05 20:10:48.687500,-59.64
2019-08-05 20:10:48.703125,-27.79
2019-08-05 20:10:48.718750,0.75
2019-08-05 20:10:48.734375,25.83
2019-08-05 20:10:48.750000,47.35
2019-08-05 20:10:48.765625,65.49
2019-08-05 20:10:48.781250,80.61
2019-08-05 20:10:48.796875,93.22
2019-08-05 20:10:48.812500,103.84
2019-08-05 20:10:48.828125,112.81
2019-08-05 20:10:48.843750,120.32
2019-08-05 20:10:48.859375,126.36
2019-08-05 20:10:48.875000,130.82
2019-08-05 20:10:48.890625,133.56
2019-08-05 20:10:48.906250,134.6
2019-08-05 20:10:48.921875,134.02
2019-08-05 20:10:48.937500,131.9
2019-08-05 20:10:48.953125,128.8
2019-08-05 20:10:48.968750,125.03
2019-08-05 20:10:48.984375,120.77
2019-08-05 20:10:49.000000,116.09
2019-08-05 20:10:49.015625,110.97
2019-08-05 20:10:49.031250,105.37
2019-08-05 20:10:49.046875,99.36
2019-08-05 20:10:49.062500,93.02
2019-08-05 20:10:49.078125,86.48
2019-08-05 20:10:49.093750,79.88
2019-08-05 20:10:49.109375,73.31
2019-08-05 20:10:49.125000,66.85
2019-08-05 20:10:49.140625,60.57
2019-08-05 20:10:49.156250,54.53
2019-08-05 20:10:49.171875,48.77
2019-08-05 20:10:49.187500,43.37
2019-08-05 20:10:49.203125,38.37
2019-08-05 20:10:49.218750,33.77
2019-08-05 20:10:49.234375,29.54
2019-08-05 20:10:49.250000,25.6
2019-08-05 20:10:49.265625,21.88
2019-08-05 20:10:49.281250,18.3
2019-08-05 20:10:49.296875,14.82
2019-08-05 20:10:49.312500,11.42
2019-08-05 20:10:49.328125,8.12
2019-08-05 20:10:49.343750,4.98
2019-08-05 20:10:49.359375,2.05
2019-08-05 20:10:49.375000,-0.63
2019-08-05 20:10:49.390625,-3.04
2019-08-05 20:10:49.406250,-5.17
2019-08-05 20:10:49.421875,-7.04
2019-08-05 20:10:49.437500,-8.67
2019-08-05 20:10:49.453125,-10.08
2019-08-05 20:10:49.468750,-11.32
2019-08-05 20:10:49.484375,-12.42
2019-08-05 20:10:49.500000,-13.42
2019-08-05 20:10:49.515625,-14.36
2019-08-05 20:10:49.531250,-15.27
2019-08-05 20:10:49.546875,-16.2
2019-08-05 20:10:49.562500,-17.15
2019-08-05 20:10:49.578125,-18.08
2019-08-05 20:10:49.593750,-18.97
2019-08-05 20:10:49.609375,-19.76
2019-08-05 20:10:49.625000,-20.4
2019-08-05 20:10:49.640625,-20.83
2019-08-05 20:10:49.656250,-20.99
2019-08-05 20:10:49.671875,-20.86
2019-08-05 20:10:49.687500,-20.43
2019-08-05 20:10:49.703125,-19.69
2019-08-05 20:10:49.718750,-18.64
2019-08-05 20:10:49.734375,-17.33
2019-08-05 20:10:49.750000,-15.79
2019-08-05 20:10:49.765625,-14.09
2019-08-05 20:10:49.781250,-12.26
2019-08-05 20:10:49.796875,-10.37
2019-08-05 20:10:49.812500,-8.48
2019-08-05 20:10:49.828125,-6.62
2019-08-05 20:10:49.843750,-4.83
2019-08-05 20:10:49.859375,-3.14
2019-08-05 20:10:49.875000,-1.56
2019-08-05 20:10:49.890625,-0.11
2019-08-05 20:10:49.906250,1.19
2019-08-05 20:10:49.921875,2.33
2019-08-05 20:10:49.937500,3.3
2019-08-05 20:10:49.953125,4.12
2019-08-05 20:10:49.968750,4.78
2019-08-05 20:10:49.984375,5.27
2019-08-05 20:10:50.000000,5.61
2019-08-05 20:10:50.015625,5.8
2019-08-05 20:10:50.031250,5.85
2019-08-05 20:10:50.046875,5.73
2019-08-05 20:10:50.062500,5.43
2019-08-05 20:10:50.078125,4.93
2019-08-05 20:10:50.093750,4.23
2019-08-05 20:10:50.109375,3.31
2019-08-05 20:10:50.125000,2.19
2019-08-05 20:10:50.140625,0.87
2019-08-05 20:10:50.156250,-0.63
2019-08-05 20:10:50.171875,-2.27
2019-08-05 20:10:50.187500,-3.98
2019-08-05 20:10:50.203125,-5.71
2019-08-05 20:10:50.218750,-7.37
2019-08-05 20:10:50.234375,-8.89
2019-08-05 20:10:50.250000,-10.2
2019-08-05 20:10:50.265625,-11.27
2019-08-05 20:10:50.281250,-12.06
2019-08-05 20:10:50.296875,-12.57
2019-08-05 20:10:50.312500,-12.84
2019-08-05 20:10:50.328125,-12.88
2019-08-05 20:10:50.343750,-12.71
2019-08-05 20:10:50.359375,-12.38
2019-08-05 20:10:50.375000,-11.96
2019-08-05 20:10:50.390625,-11.51
2019-08-05 20:10:50.406250,-11.06
2019-08-05 20:10:50.421875,-10.69
2019-08-05 20:10:50.437500,-10.46
2019-08-05 20:10:50.453125,-10.42
2019-08-05 20:10:50.468750,-10.61
2019-08-05 20:10:50.484375,-11.05
2019-08-05 20:10:50.500000,-11.75
2019-08-05 20:10:50.515625,-12.7
2019-08-05 20:10:50.531250,-13.85
2019-08-05 20:10:50.546875,-15.16
2019-08-05 20:10:50.562500,-16.54
2019-08-05 20:10:50.578125,-17.92
2019-08-05 20:10:50.593750,-19.22
2019-08-05 20:10:50.609375,-20.37
2019-08-05 20:10:50.625000,-21.33
2019-08-05 20:10:50.640625,-22.11
2019-08-05 20:10:50.656250,-22.73
2019-08-05 20:10:50.671875,-23.21
2019-08-05 20:10:50.687500,-23.6
2019-08-05 20:10:50.703125,-23.89
2019-08-05 20:10:50.718750,-24.08
2019-08-05 20:10:50.734375,-24.14
2019-08-05 20:10:50.750000,-24.03
2019-08-05 20:10:50.765625,-23.65
2019-08-05 20:10:50.781250,-22.96
2019-08-05 20:10:50.796875,-21.89
2019-08-05 20:10:50.812500,-20.39
2019-08-05 20:10:50.828125,-18.48
2019-08-05 20:10:50.843750,-16.18
2019-08-05 20:10:50.859375,-13.53
2019-08-05 20:10:50.875000,-10.62
2019-08-05 20:10:50.890625,-7.54
2019-08-05 20:10:50.906250,-4.38
2019-08-05 20:10:50.921875,-1.19
2019-08-05 20:10:50.937500,1.97
2019-08-05 20:10:50.953125,5.13
2019-08-05 20:10:50.968750,8.34
2019-08-05 20:10:50.984375,11.64
2019-08-05 20:10:51.000000,15.05
2019-08-05 20:10:51.015625,18.6
2019-08-05 20:10:51.031250,22.28
2019-08-05 20:10:51.046875,26.13
2019-08-05 20:10:51.062500,30.16
2019-08-05 20:10:51.078125,34.41
2019-08-05 20:10:51.093750,38.92
2019-08-05 20:10:51.109375,43.69
2019-08-05 20:10:51.125000,48.72
2019-08-05 20:10:51.140625,53.99
2019-08-05 20:10:51.156250,59.41
2019-08-05 20:10:51.171875,64.9
2019-08-05 20:10:51.187500,70.41
2019-08-05 20:10:51.203125,75.94
2019-08-05 20:10:51.218750,81.58
2019-08-05 20:10:51.234375,87.39
2019-08-05 20:10:51.250000,93.39
2019-08-05 20:10:51.265625,99.53
2019-08-05 20:10:51.281250,105.69
2019-08-05 20:10:51.296875,111.68
2019-08-05 20:10:51.312500,117.31
2019-08-05 20:10:51.328125,122.48
2019-08-05 20:10:51.343750,127.16
2019-08-05 20:10:51.359375,131.44
2019-08-05 20:10:51.375000,135.41
2019-08-05 20:10:51.390625,139.11
2019-08-05 20:10:51.406250,142.39
2019-08-05 20:10:51.421875,144.92
2019-08-05 20:10:51.437500,146.29
2019-08-05 20:10:51.453125,146.09
2019-08-05 20:10:51.468750,144.12
2019-08-05 20:10:51.484375,140.45
2019-08-05 20:10:51.500000,135.4
2019-08-05 20:10:51.515625,129.38
2019-08-05 20:10:51.531250,122.68
2019-08-05 20:10:51.546875,115.31
2019-08-05 20:10:51.562500,106.92
2019-08-05 20:10:51.578125,96.96
2019-08-05 20:10:51.593750,84.98
2019-08-05 20:10:51.609375,70.88
2019-08-05 20:10:51.625000,55.13
2019-08-05 20:10:51.640625,38.71
2019-08-05 20:10:51.656250,22.71
2019-08-05 20:10:51.671875,7.97
2019-08-05 20:10:51.687500,-5.38
2019-08-05 20:10:51.703125,-17.99
2019-08-05 20:10:51.718750,-30.98
2019-08-05 20:10:51.734375,-45.47
2019-08-05 20:10:51.750000,-62.0
2019-08-05 20:10:51.765625,-80.24
2019-08-05 20:10:51.781250,-99.01
2019-08-05 20:10:51.796875,-116.91
2019-08-05 20:10:51.812500,-132.98
2019-08-05 20:10:51.828125,-147.15
2019-08-05 20:10:51.843750,-160.48
2019-08-05 20:10:51.859375,-174.76
2019-08-05 20:10:51.875000,-191.87
2019-08-05 20:10:51.890625,-213.16
2019-08-05 20:10:51.906250,-238.89
2019-08-05 20:10:51.921875,-268.07
2019-08-05 20:10:51.937500,-298.55
2019-08-05 20:10:51.953125,-327.01
2019-08-05 20:10:51.968750,-349.57
2019-08-05 20:10:51.984375,-362.4
2019-08-05 20:10:52.000000,-362.79
2019-08-05 20:10:52.015625,-350.25
2019-08-05 20:10:52.031250,-326.93
2019-08-05 20:10:52.046875,-297.39
2019-08-05 20:10:52.062500,-267.26
2019-08-05 20:10:52.078125,-241.39
2019-08-05 20:10:52.093750,-222.21
2019-08-05 20:10:52.109375,-209.14
2019-08-05 20:10:52.125000,-199.16
2019-08-05 20:10:52.140625,-188.35
2019-08-05 20:10:52.156250,-173.82
2019-08-05 20:10:52.171875,-154.98
2019-08-05 20:10:52.187500,-133.54
2019-08-05 20:10:52.203125,-112.33
2019-08-05 20:10:52.218750,-93.87
2019-08-05 20:10:52.234375,-79.18
2019-08-05 20:10:52.250000,-67.65
2019-08-05 20:10:52.265625,-57.98
2019-08-05 20:10:52.281250,-49.2
2019-08-05 20:10:52.296875,-41.69
2019-08-05 20:10:52.312500,-36.91
2019-08-05 20:10:52.328125,-36.4
2019-08-05 20:10:52.343750,-40.37
2019-08-05 20:10:52.359375,-46.55
2019-08-05 20:10:52.375000,-50.48
2019-08-05 20:10:52.390625,-47.53
2019-08-05 20:10:52.406250,-35.33
2019-08-05 20:10:52.421875,-15.34
2019-08-05 20:10:52.437500,7.41
2019-08-05 20:10:52.453125,26.69
2019-08-05 20:10:52.468750,38.24
2019-08-05 20:10:52.484375,41.77
2019-08-05 20:10:52.500000,40.83
2019-08-05 20:10:52.515625,40.34
2019-08-05 20:10:52.531250,43.47
2019-08-05 20:10:52.546875,49.58
2019-08-05 20:10:52.562500,54.48
2019-08-05 20:10:52.578125,53.11
2019-08-05 20:10:52.593750,43.14
2019-08-05 20:10:52.609375,26.7
2019-08-05 20:10:52.625000,9.64
2019-08-05 20:10:52.640625,-1.38
2019-08-05 20:10:52.656250,-2.37
2019-08-05 20:10:52.671875,5.81
2019-08-05 20:10:52.687500,18.13
2019-08-05 20:10:52.703125,28.28
2019-08-05 20:10:52.718750,31.86
2019-08-05 20:10:52.734375,28.82
2019-08-05 20:10:52.750000,23.18
2019-08-05 20:10:52.765625,20.4
2019-08-05 20:10:52.781250,23.91
2019-08-05 20:10:52.796875,32.97
2019-08-05 20:10:52.812500,42.99
2019-08-05 20:10:52.828125,48.3
2019-08-05 20:10:52.843750,45.53
2019-08-05 20:10:52.859375,35.71
2019-08-05 20:10:52.875000,23.78
2019-08-05 20:10:52.890625,15.59
2019-08-05 20:10:52.906250,14.45
2019-08-05 20:10:52.921875,19.3
2019-08-05 20:10:52.937500,25.69
2019-08-05 20:10:52.953125,28.7
2019-08-05 20:10:52.968750,26.44
2019-08-05 20:10:52.984375,21.44
2019-08-05 20:10:53.000000,18.97
2019-08-05 20:10:53.015625,23.49
2019-08-05 20:10:53.031250,35.5
2019-08-05 20:10:53.046875,50.73
2019-08-05 20:10:53.062500,62.26
2019-08-05 20:10:53.078125,64.1
2019-08-05 20:10:53.093750,54.61
2019-08-05 20:10:53.109375,37.25
2019-08-05 20:10:53.125000,18.43
2019-08-05 20:10:53.140625,4.04
2019-08-05 20:10:53.156250,-3.35
2019-08-05 20:10:53.171875,-5.39
2019-08-05 20:10:53.187500,-6.25
2019-08-05 20:10:53.203125,-9.71
2019-08-05 20:10:53.218750,-16.64
2019-08-05 20:10:53.234375,-24.26
2019-08-05 20:10:53.250000,-27.48
2019-08-05 20:10:53.265625,-21.74
2019-08-05 20:10:53.281250,-6.12
2019-08-05 20:10:53.296875,15.3
2019-08-05 20:10:53.312500,34.37
2019-08-05 20:10:53.328125,42.23
2019-08-05 20:10:53.343750,33.61
2019-08-05 20:10:53.359375,9.95
2019-08-05 20:10:53.375000,-20.39
2019-08-05 20:10:53.390625,-45.67
2019-08-05 20:10:53.406250,-56.47
2019-08-05 20:10:53.421875,-50.64
2019-08-05 20:10:53.437500,-34.83
2019-08-05 20:10:53.453125,-21.48
2019-08-05 20:10:53.468750,-22.39
2019-08-05 20:10:53.484375,-42.49
2019-08-05 20:10:53.500000,-77.08
2019-08-05 20:10:53.515625,-114.11
2019-08-05 20:10:53.531250,-140.01
2019-08-05 20:10:53.546875,-145.71
2019-08-05 20:10:53.562500,-129.67
2019-08-05 20:10:53.578125,-96.55
2019-08-05 20:10:53.593750,-53.01
2019-08-05 20:10:53.609375,-4.01
2019-08-05 20:10:53.625000,48.11
2019-08-05 20:10:53.640625,101.41
2019-08-05 20:10:53.656250,151.11
2019-08-05 20:10:53.671875,188.03
2019-08-05 20:10:53.687500,200.66
2019-08-05 20:10:53.703125,180.35
2019-08-05 20:10:53.718750,126.71
2019-08-05 20:10:53.734375,50.02
2019-08-05 20:10:53.750000,-31.06
2019-08-05 20:10:53.765625,-95.53
2019-08-05 20:10:53.781250,-127.34
2019-08-05 20:10:53.796875,-120.59
2019-08-05 20:10:53.812500,-80.51
2019-08-05 20:10:53.828125,-20.21
2019-08-05 20:10:53.843750,44.83
2019-08-05 20:10:53.859375,101.82
2019-08-05 20:10:53.875000,143.43
2019-08-05 20:10:53.890625,167.32
2019-08-05 20:10:53.906250,173.76
2019-08-05 20:10:53.921875,163.17
2019-08-05 20:10:53.937500,135.85
2019-08-05 20:10:53.953125,93.44
2019-08-05 20:10:53.968750,41.44
2019-08-05 20:10:53.984375,-10.15
2019-08-05 20:10:54.000000,-49.37
2019-08-05 20:10:54.015625,-67.09
2019-08-05 20:10:54.031250,-61.68
2019-08-05 20:10:54.046875,-40.12
2019-08-05 20:10:54.062500,-14.92
2019-08-05 20:10:54.078125,2.36
2019-08-05 20:10:54.093750,6.63
2019-08-05 20:10:54.109375,1.16
2019-08-05 20:10:54.125000,-5.76
2019-08-05 20:10:54.140625,-6.79
2019-08-05 20:10:54.156250,-0.17
2019-08-05 20:10:54.171875,9.5
2019-08-05 20:10:54.187500,15.14
2019-08-05 20:10:54.203125,12.25
2019-08-05 20:10:54.218750,2.36
2019-08-05 20:10:54.234375,-8.11
2019-08-05 20:10:54.250000,-12.22
2019-08-05 20:10:54.265625,-7.05
2019-08-05 20:10:54.281250,4.43
2019-08-05 20:10:54.296875,15.3
2019-08-05 20:10:54.312500,19.03
2019-08-05 20:10:54.328125,13.29
2019-08-05 20:10:54.343750,1.26
2019-08-05 20:10:54.359375,-10.41
2019-08-05 20:10:54.375000,-15.43
2019-08-05 20:10:54.390625,-11.34
2019-08-05 20:10:54.406250,-0.69
2019-08-05 20:10:54.421875,10.35
2019-08-05 20:10:54.437500,15.53
2019-08-05 20:10:54.453125,12.04
2019-08-05 20:10:54.468750,1.94
2019-08-05 20:10:54.484375,-8.89
2019-08-05 20:10:54.500000,-14.15
2019-08-05 20:10:54.515625,-10.74
2019-08-05 20:10:54.531250,-0.58
2019-08-05 20:10:54.546875,10.49
2019-08-05 20:10:54.562500,16.05
2019-08-05 20:10:54.578125,12.83
2019-08-05 20:10:54.593750,2.5
2019-08-05 20:10:54.609375,-9.22
2019-08-05 20:10:54.625000,-15.95
2019-08-05 20:10:54.640625,-14.42
2019-08-05 20:10:54.656250,-6.15
2019-08-05 20:10:54.671875,3.6
2019-08-05 20:10:54.687500,9.24
2019-08-05 20:10:54.703125,8.13
2019-08-05 20:10:54.718750,2.15
2019-08-05 20:10:54.734375,-3.76
2019-08-05 20:10:54.750000,-4.83
2019-08-05 20:10:54.765625,0.58
2019-08-05 20:10:54.781250,9.89
2019-08-05 20:10:54.796875,17.75
2019-08-05 20:10:54.812500,19.22
2019-08-05 20:10:54.828125,12.64
2019-08-05 20:10:54.843750,0.77
2019-08-05 20:10:54.859375,-10.54
2019-08-05 20:10:54.875000,-15.69
2019-08-05 20:10:54.890625,-12.54
2019-08-05 20:10:54.906250,-3.68
2019-08-05 20:10:54.921875,5.26
2019-08-05 20:10:54.937500,9.11
2019-08-05 20:10:54.953125,6.28
2019-08-05 20:10:54.968750,-0.28
2019-08-05 20:10:54.984375,-5.07
2019-08-05 20:10:55.000000,-3.48
2019-08-05 20:10:55.015625,5.2
2019-08-05 20:10:55.031250,17.05
2019-08-05 20:10:55.046875,25.58
2019-08-05 20:10:55.062500,25.67
2019-08-05 20:10:55.078125,16.65
2019-08-05 20:10:55.093750,2.76
2019-08-05 20:10:55.109375,-9.02
2019-08-05 20:10:55.125000,-13.03
2019-08-05 20:10:55.140625,-8.03
2019-08-05 20:10:55.156250,1.95
2019-08-05 20:10:55.171875,10.15
2019-08-05 20:10:55.187500,11.02
2019-08-05 20:10:55.203125,3.73
2019-08-05 20:10:55.218750,-7.25
2019-08-05 20:10:55.234375,-14.7
2019-08-05 20:10:55.250000,-13.05
2019-08-05 20:10:55.265625,-1.94
2019-08-05 20:10:55.281250,13.31
2019-08-05 20:10:55.296875,24.51
2019-08-05 20:10:55.312500,25.56
2019-08-05 20:10:55.328125,16.03
2019-08-05 20:10:55.343750,1.47
2019-08-05 20:10:55.359375,-9.91
2019-08-05 20:10:55.375000,-12.3
2019-08-05 20:10:55.390625,-5.68
2019-08-05 20:10:55.406250,4.27
2019-08-05 20:10:55.421875,10.05
2019-08-05 20:10:55.437500,6.9
2019-08-05 20:10:55.453125,-4.24
2019-08-05 20:10:55.468750,-17.49
2019-08-05 20:10:55.484375,-25.83
2019-08-05 20:10:55.500000,-25.22
2019-08-05 20:10:55.515625,-16.94
2019-08-05 20:10:55.531250,-6.57
2019-08-05 20:10:55.546875,-0.7
2019-08-05 20:10:55.562500,-3.14
2019-08-05 20:10:55.578125,-12.98
2019-08-05 20:10:55.593750,-25.15
2019-08-05 20:10:55.609375,-33.56
2019-08-05 20:10:55.625000,-34.73
2019-08-05 20:10:55.640625,-29.44
2019-08-05 20:10:55.656250,-22.42
2019-08-05 20:10:55.671875,-19.42
2019-08-05 20:10:55.687500,-23.97
2019-08-05 20:10:55.703125,-35.15
2019-08-05 20:10:55.718750,-48.54
2019-08-05 20:10:55.734375,-58.29
2019-08-05 20:10:55.750000,-60.7
2019-08-05 20:10:55.765625,-56.62
2019-08-05 20:10:55.781250,-50.92
2019-08-05 20:10:55.796875,-49.73
2019-08-05 20:10:55.812500,-56.64
2019-08-05 20:10:55.828125,-70.53
2019-08-05 20:10:55.843750,-86.1
2019-08-05 20:10:55.859375,-98.21
2019-08-05 20:10:55.875000,-104.47
2019-08-05 20:10:55.890625,-107.06
2019-08-05 20:10:55.906250,-111.43
2019-08-05 20:10:55.921875,-122.71
2019-08-05 20:10:55.937500,-141.96
2019-08-05 20:10:55.953125,-164.74
2019-08-05 20:10:55.968750,-183.29
2019-08-05 20:10:55.984375,-191.01
2019-08-05 20:10:56.000000,-188.54
2019-08-05 20:10:56.015625,-183.07
2019-08-05 20:10:56.031250,-184.86
2019-08-05 20:10:56.046875,-201.43
2019-08-05 20:10:56.062500,-233.07
2019-08-05 20:10:56.078125,-272.16
2019-08-05 20:10:56.093750,-306.69
2019-08-05 20:10:56.109375,-326.14
2019-08-05 20:10:56.125000,-326.55
2019-08-05 20:10:56.140625,-313.86
2019-08-05 20:10:56.156250,-299.1
2019-08-05 20:10:56.171875,-292.35
2019-08-05 20:10:56.187500,-297.77
2019-08-05 20:10:56.203125,-312.34
2019-08-05 20:10:56.218750,-328.29
2019-08-05 20:10:56.234375,-337.31
2019-08-05 20:10:56.250000,-334.16
2019-08-05 20:10:56.265625,-304.33
2019-08-05 20:10:56.281250,-240.95
2019-08-05 20:10:56.296875,-143.74
2019-08-05 20:10:56.312500,-19.08
2019-08-05 20:10:56.328125,120.84
2019-08-05 20:10:56.343750,260.85
2019-08-05 20:10:56.359375,386.22
2019-08-05 20:10:56.375000,485.73
2019-08-05 20:10:56.390625,553.79
2019-08-05 20:10:56.406250,590.8
2019-08-05 20:10:56.421875,603.44
2019-08-05 20:10:56.437500,600.44
2019-08-05 20:10:56.453125,590.28
2019-08-05 20:10:56.468750,578.91
2019-08-05 20:10:56.484375,568.37
2019-08-05 20:10:56.500000,556.68
2019-08-05 20:10:56.515625,537.98
2019-08-05 20:10:56.531250,507.14
2019-08-05 20:10:56.546875,462.76
2019-08-05 20:10:56.562500,406.65
2019-08-05 20:10:56.578125,343.63
2019-08-05 20:10:56.593750,279.53
2019-08-05 20:10:56.609375,219.09
2019-08-05 20:10:56.625000,165.29
2019-08-05 20:10:56.640625,119.76
2019-08-05 20:10:56.656250,83.55
2019-08-05 20:10:56.671875,57.56
2019-08-05 20:10:56.687500,42.05
2019-08-05 20:10:56.703125,35.11
2019-08-05 20:10:56.718750,33.31
2019-08-05 20:10:56.734375,33.03
2019-08-05 20:10:56.750000,31.31
2019-08-05 20:10:56.765625,26.95
2019-08-05 20:10:56.781250,20.41
2019-08-05 20:10:56.796875,13.33
2019-08-05 20:10:56.812500,7.94
2019-08-05 20:10:56.828125,5.87
2019-08-05 20:10:56.843750,7.21
2019-08-05 20:10:56.859375,10.61
2019-08-05 20:10:56.875000,14.2
2019-08-05 20:10:56.890625,16.28
2019-08-05 20:10:56.906250,16.1
2019-08-05 20:10:56.921875,13.89
2019-08-05 20:10:56.937500,10.73
2019-08-05 20:10:56.953125,8.03
2019-08-05 20:10:56.968750,6.89
2019-08-05 20:10:56.984375,7.56
2019-08-05 20:10:57.000000,9.38
2019-08-05 20:10:57.015625,11.32
2019-08-05 20:10:57.031250,12.33
2019-08-05 20:10:57.046875,11.82
2019-08-05 20:10:57.062500,9.8
2019-08-05 20:10:57.078125,6.71
2019-08-05 20:10:57.093750,3.27
2019-08-05 20:10:57.109375,-0.0
2019-08-05 20:10:57.125000,-2.88
2019-08-05 20:10:57.140625,-5.56
2019-08-05 20:10:57.156250,-8.43
2019-08-05 20:10:57.171875,-11.99
2019-08-05 20:10:57.187500,-16.62
2019-08-05 20:10:57.203125,-22.45
2019-08-05 20:10:57.218750,-29.4
2019-08-05 20:10:57.234375,-37.26
2019-08-05 20:10:57.250000,-45.89
2019-08-05 20:10:57.265625,-55.21
2019-08-05 20:10:57.281250,-65.29
2019-08-05 20:10:57.296875,-76.18
2019-08-05 20:10:57.312500,-88.04
2019-08-05 20:10:57.328125,-101.11
2019-08-05 20:10:57.343750,-115.56
2019-08-05 20:10:57.359375,-131.39
2019-08-05 20:10:57.375000,-148.64
2019-08-05 20:10:57.390625,-167.33
2019-08-05 20:10:57.406250,-187.42
2019-08-05 20:10:57.421875,-208.76
2019-08-05 20:10:57.437500,-230.94
2019-08-05 20:10:57.453125,-253.44
2019-08-05 20:10:57.468750,-275.38
2019-08-05 20:10:57.484375,-296.25
2019-08-05 20:10:57.500000,-314.42
2019-08-05 20:10:57.515625,-327.84
2019-08-05 20:10:57.531250,-334.16
2019-08-05 20:10:57.546875,-331.0
2019-08-05 20:10:57.562500,-316.9
2019-08-05 20:10:57.578125,-290.26
2019-08-05 20:10:57.593750,-250.31
2019-08-05 20:10:57.609375,-197.44
2019-08-05 20:10:57.625000,-133.41
2019-08-05 20:10:57.640625,-61.1
2019-08-05 20:10:57.656250,15.51
2019-08-05 20:10:57.671875,91.86
2019-08-05 20:10:57.687500,163.33
2019-08-05 20:10:57.703125,225.69
2019-08-05 20:10:57.718750,275.67
2019-08-05 20:10:57.734375,311.0
2019-08-05 20:10:57.750000,330.64
2019-08-05 20:10:57.765625,334.67
2019-08-05 20:10:57.781250,324.35
2019-08-05 20:10:57.796875,301.52
2019-08-05 20:10:57.812500,268.57
2019-08-05 20:10:57.828125,228.07
2019-08-05 20:10:57.843750,182.5
2019-08-05 20:10:57.859375,134.21
2019-08-05 20:10:57.875000,85.18
2019-08-05 20:10:57.890625,37.12
2019-08-05 20:10:57.906250,-8.57
2019-08-05 20:10:57.921875,-50.58
2019-08-05 20:10:57.937500,-87.77
2019-08-05 20:10:57.953125,-119.21
2019-08-05 20:10:57.968750,-144.12
2019-08-05 20:10:57.984375,-161.89
2019-08-05 20:10:58.000000,-172.2
2019-08-05 20:10:58.015625,-175.11
2019-08-05 20:10:58.031250,-171.11
2019-08-05 20:10:58.046875,-161.07
2019-08-05 20:10:58.062500,-146.18
2019-08-05 20:10:58.078125,-127.93
2019-08-05 20:10:58.093750,-107.89
2019-08-05 20:10:58.109375,-87.59
2019-08-05 20:10:58.125000,-68.35
2019-08-05 20:10:58.140625,-51.32
2019-08-05 20:10:58.156250,-37.27
2019-08-05 20:10:58.171875,-26.65
2019-08-05 20:10:58.187500,-19.61
2019-08-05 20:10:58.203125,-16.0
2019-08-05 20:10:58.218750,-15.41
2019-08-05 20:10:58.234375,-17.34
2019-08-05 20:10:58.250000,-21.17
2019-08-05 20:10:58.265625,-26.37
2019-08-05 20:10:58.281250,-32.43
2019-08-05 20:10:58.296875,-38.91
2019-08-05 20:10:58.312500,-45.57
2019-08-05 20:10:58.328125,-52.26
2019-08-05 20:10:58.343750,-58.89
2019-08-05 20:10:58.359375,-65.45
2019-08-05 20:10:58.375000,-71.98
2019-08-05 20:10:58.390625,-78.46
2019-08-05 20:10:58.406250,-84.86
2019-08-05 20:10:58.421875,-91.01
2019-08-05 20:10:58.437500,-96.62
2019-08-05 20:10:58.453125,-101.3
2019-08-05 20:10:58.468750,-104.51
2019-08-05 20:10:58.484375,-105.63
2019-08-05 20:10:58.500000,-103.93
2019-08-05 20:10:58.515625,-98.65
2019-08-05 20:10:58.531250,-89.06
2019-08-05 20:10:58.546875,-74.55
2019-08-05 20:10:58.562500,-54.91
2019-08-05 20:10:58.578125,-30.15
2019-08-05 20:10:58.593750,-0.54
2019-08-05 20:10:58.609375,33.35
2019-08-05 20:10:58.625000,70.69
2019-08-05 20:10:58.640625,110.35
2019-08-05 20:10:58.656250,150.96
2019-08-05 20:10:58.671875,191.01
2019-08-05 20:10:58.687500,228.89
2019-08-05 20:10:58.703125,262.96
2019-08-05 20:10:58.718750,291.66
2019-08-05 20:10:58.734375,313.57
2019-08-05 20:10:58.750000,327.49
2019-08-05 20:10:58.765625,332.53
2019-08-05 20:10:58.781250,328.15
2019-08-05 20:10:58.796875,314.29
2019-08-05 20:10:58.812500,291.34
2019-08-05 20:10:58.828125,260.13
2019-08-05 20:10:58.843750,221.99
2019-08-05 20:10:58.859375,178.63
2019-08-05 20:10:58.875000,132.01
2019-08-05 20:10:58.890625,84.19
2019-08-05 20:10:58.906250,37.16
2019-08-05 20:10:58.921875,-7.3
2019-08-05 20:10:58.937500,-47.73
2019-08-05 20:10:58.953125,-83.09
2019-08-05 20:10:58.968750,-112.76
2019-08-05 20:10:58.984375,-136.6
2019-08-05 20:10:59.000000,-154.83
2019-08-05 20:10:59.015625,-167.98
2019-08-05 20:10:59.031250,-176.75
2019-08-05 20:10:59.046875,-181.96
2019-08-05 20:10:59.062500,-184.4
2019-08-05 20:10:59.078125,-184.75
2019-08-05 20:10:59.093750,-183.63
2019-08-05 20:10:59.109375,-181.58
2019-08-05 20:10:59.125000,-179.07
2019-08-05 20:10:59.140625,-176.46
2019-08-05 20:10:59.156250,-174.05
2019-08-05 20:10:59.171875,-172.04
2019-08-05 20:10:59.187500,-170.56
2019-08-05 20:10:59.203125,-169.64
2019-08-05 20:10:59.218750,-169.28
2019-08-05 20:10:59.234375,-169.44
2019-08-05 20:10:59.250000,-170.09
2019-08-05 20:10:59.265625,-171.18
2019-08-05 20:10:59.281250,-172.66
2019-08-05 20:10:59.296875,-174.38
2019-08-05 20:10:59.312500,-176.11
2019-08-05 20:10:59.328125,-177.53
2019-08-05 20:10:59.343750,-178.25
2019-08-05 20:10:59.359375,-177.89
2019-08-05 20:10:59.375000,-176.2
2019-08-05 20:10:59.390625,-173.14
2019-08-05 20:10:59.406250,-168.88
2019-08-05 20:10:59.421875,-163.77
2019-08-05 20:10:59.437500,-158.23
2019-08-05 20:10:59.453125,-152.56
2019-08-05 20:10:59.468750,-146.88
2019-08-05 20:10:59.484375,-141.12
2019-08-05 20:10:59.500000,-135.19
2019-08-05 20:10:59.515625,-129.07
2019-08-05 20:10:59.531250,-123.0
2019-08-05 20:10:59.546875,-117.61
2019-08-05 20:10:59.562500,-113.65
2019-08-05 20:10:59.578125,-111.76
2019-08-05 20:10:59.593750,-112.12
2019-08-05 20:10:59.609375,-114.28
2019-08-05 20:10:59.625000,-117.24
2019-08-05 20:10:59.640625,-119.77
2019-08-05 20:10:59.656250,-120.91
2019-08-05 20:10:59.671875,-120.31
2019-08-05 20:10:59.687500,-118.34
2019-08-05 20:10:59.703125,-115.91
2019-08-05 20:10:59.718750,-113.89
2019-08-05 20:10:59.734375,-112.61
2019-08-05 20:10:59.750000,-111.55
2019-08-05 20:10:59.765625,-109.43
2019-08-05 20:10:59.781250,-104.73
2019-08-05 20:10:59.796875,-96.36
2019-08-05 20:10:59.812500,-84.15
2019-08-05 20:10:59.828125,-68.97
2019-08-05 20:10:59.843750,-52.37
2019-08-05 20:10:59.859375,-35.92
2019-08-05 20:10:59.875000,-20.41
2019-08-05 20:10:59.890625,-5.53
2019-08-05 20:10:59.906250,10.3
2019-08-05 20:10:59.921875,29.81
2019-08-05 20:10:59.937500,56.64
2019-08-05 20:10:59.953125,94.85
2019-08-05 20:10:59.968750,147.74
2019-08-05 20:10:59.984375,216.2
2019-08-05 20:11:00.000000,297.39
2019-08-05 20:11:00.015625,384.4
2019-08-05 20:11:00.031250,467.75
2019-08-05 20:11:00.046875,538.55
2019-08-05 20:11:00.062500,591.76
2019-08-05 20:11:00.078125,627.79
2019-08-05 20:11:00.093750,651.73
2019-08-05 20:11:00.109375,670.37
2019-08-05 20:11:00.125000,688.51
2019-08-05 20:11:00.140625,706.71
2019-08-05 20:11:00.156250,721.36
2019-08-05 20:11:00.171875,726.84
2019-08-05 20:11:00.187500,718.46
2019-08-05 20:11:00.203125,694.41
2019-08-05 20:11:00.218750,656.07
2019-08-05 20:11:00.234375,606.69
2019-08-05 20:11:00.250000,549.84
2019-08-05 20:11:00.265625,488.27
2019-08-05 20:11:00.281250,423.98
2019-08-05 20:11:00.296875,358.71
2019-08-05 20:11:00.312500,294.53
2019-08-05 20:11:00.328125,234.03
2019-08-05 20:11:00.343750,179.77
2019-08-05 20:11:00.359375,133.32
2019-08-05 20:11:00.375000,94.91
2019-08-05 20:11:00.390625,63.81
2019-08-05 20:11:00.406250,39.46
2019-08-05 20:11:00.421875,22.47
2019-08-05 20:11:00.437500,14.26
2019-08-05 20:11:00.453125,15.86
2019-08-05 20:11:00.468750,26.38
2019-08-05 20:11:00.484375,42.55
2019-08-05 20:11:00.500000,59.72
2019-08-05 20:11:00.515625,74.26
2019-08-05 20:11:00.531250,85.51
2019-08-05 20:11:00.546875,96.34
2019-08-05 20:11:00.562500,112.02
2019-08-05 20:11:00.578125,137.15
2019-08-05 20:11:00.593750,173.15
2019-08-05 20:11:00.609375,217.71
2019-08-05 20:11:00.625000,266.49
2019-08-05 20:11:00.640625,315.83
2019-08-05 20:11:00.656250,365.0
2019-08-05 20:11:00.671875,416.78
2019-08-05 20:11:00.687500,473.73
2019-08-05 20:11:00.703125,538.36
2019-08-05 20:11:00.718750,610.84
2019-08-05 20:11:00.734375,688.03
2019-08-05 20:11:00.750000,764.14
2019-08-05 20:11:00.765625,832.21
2019-08-05 20:11:00.781250,885.46
2019-08-05 20:11:00.796875,918.13
2019-08-05 20:11:00.812500,925.73
2019-08-05 20:11:00.828125,904.8
2019-08-05 20:11:00.843750,853.42
2019-08-05 20:11:00.859375,771.24
2019-08-05 20:11:00.875000,660.21
2019-08-05 20:11:00.890625,524.99
2019-08-05 20:11:00.906250,372.92
2019-08-05 20:11:00.921875,212.85
2019-08-05 20:11:00.937500,53.82
2019-08-05 20:11:00.953125,-96.47
2019-08-05 20:11:00.968750,-232.71
2019-08-05 20:11:00.984375,-351.92
2019-08-05 20:11:01.000000,-453.36
2019-08-05 20:11:01.015625,-537.75
2019-08-05 20:11:01.031250,-606.25
2019-08-05 20:11:01.046875,-659.91
2019-08-05 20:11:01.062500,-699.46
2019-08-05 20:11:01.078125,-725.53
2019-08-05 20:11:01.093750,-738.95
2019-08-05 20:11:01.109375,-741.09
2019-08-05 20:11:01.125000,-733.75
2019-08-05 20:11:01.140625,-719.03
2019-08-05 20:11:01.156250,-699.05
2019-08-05 20:11:01.171875,-675.49
2019-08-05 20:11:01.187500,-649.55
2019-08-05 20:11:01.203125,-621.85
2019-08-05 20:11:01.218750,-592.69
2019-08-05 20:11:01.234375,-562.24
2019-08-05 20:11:01.250000,-530.78
2019-08-05 20:11:01.265625,-498.69
2019-08-05 20:11:01.281250,-466.49
2019-08-05 20:11:01.296875,-434.67
2019-08-05 20:11:01.312500,-403.59
2019-08-05 20:11:01.328125,-373.55
2019-08-05 20:11:01.343750,-344.63
2019-08-05 20:11:01.359375,-316.82
2019-08-05 20:11:01.375000,-290.17
2019-08-05 20:11:01.390625,-264.65
2019-08-05 20:11:01.406250,-240.27
2019-08-05 20:11:01.421875,-217.04
2019-08-05 20:11:01.437500,-194.8
2019-08-05 20:11:01.453125,-173.26
2019-08-05 20:11:01.468750,-152.09
2019-08-05 20:11:01.484375,-130.65
2019-08-05 20:11:01.500000,-108.24
2019-08-05 20:11:01.515625,-84.29
2019-08-05 20:11:01.531250,-58.43
2019-08-05 20:11:01.546875,-30.73
2019-08-05 20:11:01.562500,-1.85
2019-08-05 20:11:01.578125,27.13
2019-08-05 20:11:01.593750,55.14
2019-08-05 20:11:01.609375,80.0
2019-08-05 20:11:01.625000,99.49
2019-08-05 20:11:01.640625,111.56
2019-08-05 20:11:01.656250,114.62
2019-08-05 20:11:01.671875,107.61
2019-08-05 20:11:01.687500,89.96
2019-08-05 20:11:01.703125,61.72
2019-08-05 20:11:01.718750,23.52
2019-08-05 20:11:01.734375,-22.4
2019-08-05 20:11:01.750000,-73.45
2019-08-05 20:11:01.765625,-126.57
2019-08-05 20:11:01.781250,-178.99
2019-08-05 20:11:01.796875,-227.35
2019-08-05 20:11:01.812500,-268.03
2019-08-05 20:11:01.828125,-297.71
2019-08-05 20:11:01.843750,-313.52
2019-08-05 20:11:01.859375,-313.3
2019-08-05 20:11:01.875000,-296.07
2019-08-05 20:11:01.890625,-262.54
2019-08-05 20:11:01.906250,-214.87
2019-08-05 20:11:01.921875,-156.61
2019-08-05 20:11:01.937500,-92.46
2019-08-05 20:11:01.953125,-27.75
2019-08-05 20:11:01.968750,31.6
2019-08-05 20:11:01.984375,80.35
2019-08-05 20:11:02.000000,114.58
2019-08-05 20:11:02.015625,131.88
2019-08-05 20:11:02.031250,131.77
2019-08-05 20:11:02.046875,116.02
2019-08-05 20:11:02.062500,88.13
2019-08-05 20:11:02.078125,52.91
2019-08-05 20:11:02.093750,16.02
2019-08-05 20:11:02.109375,-17.48
2019-08-05 20:11:02.125000,-43.22
2019-08-05 20:11:02.140625,-58.4
2019-08-05 20:11:02.156250,-62.38
2019-08-05 20:11:02.171875,-56.81
2019-08-05 20:11:02.187500,-44.98
2019-08-05 20:11:02.203125,-31.7
2019-08-05 20:11:02.218750,-22.13
2019-08-05 20:11:02.234375,-20.7
2019-08-05 20:11:02.250000,-30.79
2019-08-05 20:11:02.265625,-53.34
2019-08-05 20:11:02.281250,-86.74
2019-08-05 20:11:02.296875,-127.25
2019-08-05 20:11:02.312500,-169.59
2019-08-05 20:11:02.328125,-207.78
2019-08-05 20:11:02.343750,-236.23
2019-08-05 20:11:02.359375,-250.6
2019-08-05 20:11:02.375000,-245.67
2019-08-05 20:11:02.390625,-221.43
2019-08-05 20:11:02.406250,-181.01
2019-08-05 20:11:02.421875,-129.53
2019-08-05 20:11:02.437500,-72.99
2019-08-05 20:11:02.453125,-17.09
2019-08-05 20:11:02.468750,33.4
2019-08-05 20:11:02.484375,75.26
2019-08-05 20:11:02.500000,106.98
2019-08-05 20:11:02.515625,128.57
2019-08-05 20:11:02.531250,140.53
2019-08-05 20:11:02.546875,144.44
2019-08-05 20:11:02.562500,142.56
2019-08-05 20:11:02.578125,136.96
2019-08-05 20:11:02.593750,129.39
2019-08-05 20:11:02.609375,121.13
2019-08-05 20:11:02.625000,112.94
2019-08-05 20:11:02.640625,105.25
2019-08-05 20:11:02.656250,98.25
2019-08-05 20:11:02.671875,91.43
2019-08-05 20:11:02.687500,84.65
2019-08-05 20:11:02.703125,77.98
2019-08-05 20:11:02.718750,71.53
2019-08-05 20:11:02.734375,65.48
2019-08-05 20:11:02.750000,59.92
2019-08-05 20:11:02.765625,54.9
2019-08-05 20:11:02.781250,50.37
2019-08-05 20:11:02.796875,46.26
2019-08-05 20:11:02.812500,42.24
2019-08-05 20:11:02.828125,38.22
2019-08-05 20:11:02.843750,34.27
2019-08-05 20:11:02.859375,30.42
2019-08-05 20:11:02.875000,26.75
2019-08-05 20:11:02.890625,23.29
2019-08-05 20:11:02.906250,20.03
2019-08-05 20:11:02.921875,16.93
2019-08-05 20:11:02.937500,14.03
2019-08-05 20:11:02.953125,11.26
2019-08-05 20:11:02.968750,8.74
2019-08-05 20:11:02.984375,6.59
2019-08-05 20:11:03.000000,4.8
2019-08-05 20:11:03.015625,3.27
2019-08-05 20:11:03.031250,1.78
2019-08-05 20:11:03.046875,0.13
2019-08-05 20:11:03.062500,-1.81
2019-08-05 20:11:03.078125,-3.96
2019-08-05 20:11:03.093750,-6.09
2019-08-05 20:11:03.109375,-7.84
2019-08-05 20:11:03.125000,-8.75
2019-08-05 20:11:03.140625,-8.9
2019-08-05 20:11:03.156250,-8.62
2019-08-05 20:11:03.171875,-8.42
2019-08-05 20:11:03.187500,-8.84
2019-08-05 20:11:03.203125,-10.18
2019-08-05 20:11:03.218750,-12.28
2019-08-05 20:11:03.234375,-14.6
2019-08-05 20:11:03.250000,-16.37
2019-08-05 20:11:03.265625,-16.92
2019-08-05 20:11:03.281250,-16.1
2019-08-05 20:11:03.296875,-14.32
2019-08-05 20:11:03.312500,-12.5
2019-08-05 20:11:03.328125,-11.63
2019-08-05 20:11:03.343750,-12.37
2019-08-05 20:11:03.359375,-14.68
2019-08-05 20:11:03.375000,-17.78
2019-08-05 20:11:03.390625,-20.64
2019-08-05 20:11:03.406250,-22.09
2019-08-05 20:11:03.421875,-21.54
2019-08-05 20:11:03.437500,-19.02
2019-08-05 20:11:03.453125,-15.22
2019-08-05 20:11:03.468750,-11.39
2019-08-05 20:11:03.484375,-9.15
2019-08-05 20:11:03.500000,-10.09
2019-08-05 20:11:03.515625,-14.87
2019-08-05 20:11:03.531250,-22.34
2019-08-05 20:11:03.546875,-28.95
2019-08-05 20:11:03.562500,-29.61
2019-08-05 20:11:03.578125,-19.58
2019-08-05 20:11:03.593750,3.22
2019-08-05 20:11:03.609375,36.84
2019-08-05 20:11:03.625000,75.54
2019-08-05 20:11:03.640625,111.59
2019-08-05 20:11:03.656250,137.63
2019-08-05 20:11:03.671875,148.61
2019-08-05 20:11:03.687500,142.88
2019-08-05 20:11:03.703125,121.92
2019-08-05 20:11:03.718750,89.81
2019-08-05 20:11:03.734375,52.23
2019-08-05 20:11:03.750000,15.42
2019-08-05 20:11:03.765625,-15.14
2019-08-05 20:11:03.781250,-35.86
2019-08-05 20:11:03.796875,-45.84
2019-08-05 20:11:03.812500,-46.78
2019-08-05 20:11:03.828125,-41.96
2019-08-05 20:11:03.843750,-34.8
2019-08-05 20:11:03.859375,-27.77
2019-08-05 20:11:03.875000,-21.96
2019-08-05 20:11:03.890625,-17.88
2019-08-05 20:11:03.906250,-15.65
2019-08-05 20:11:03.921875,-15.27
2019-08-05 20:11:03.937500,-16.49
2019-08-05 20:11:03.953125,-18.49
2019-08-05 20:11:03.968750,-20.09
2019-08-05 20:11:03.984375,-20.3
2019-08-05 20:11:04.000000,-18.73
2019-08-05 20:11:04.015625,-15.8
2019-08-05 20:11:04.031250,-12.56
2019-08-05 20:11:04.046875,-10.15
2019-08-05 20:11:04.062500,-9.28
2019-08-05 20:11:04.078125,-9.95
2019-08-05 20:11:04.093750,-11.48
2019-08-05 20:11:04.109375,-12.93
2019-08-05 20:11:04.125000,-13.42
2019-08-05 20:11:04.140625,-12.63
2019-08-05 20:11:04.156250,-10.79
2019-08-05 20:11:04.171875,-8.59
2019-08-05 20:11:04.187500,-6.8
2019-08-05 20:11:04.203125,-5.92
2019-08-05 20:11:04.218750,-6.03
2019-08-05 20:11:04.234375,-6.77
2019-08-05 20:11:04.250000,-7.58
2019-08-05 20:11:04.265625,-7.9
2019-08-05 20:11:04.281250,-7.52
2019-08-05 20:11:04.296875,-6.53
2019-08-05 20:11:04.312500,-5.37
2019-08-05 20:11:04.328125,-4.46
2019-08-05 20:11:04.343750,-4.1
2019-08-05 20:11:04.359375,-4.31
2019-08-05 20:11:04.375000,-4.83
2019-08-05 20:11:04.390625,-5.32
2019-08-05 20:11:04.406250,-5.45
2019-08-05 20:11:04.421875,-5.2
2019-08-05 20:11:04.437500,-4.75
2019-08-05 20:11:04.453125,-4.45
2019-08-05 20:11:04.468750,-4.65
2019-08-05 20:11:04.484375,-5.43
2019-08-05 20:11:04.500000,-6.58
2019-08-05 20:11:04.515625,-7.74
2019-08-05 20:11:04.531250,-8.48
2019-08-05 20:11:04.546875,-8.58
2019-08-05 20:11:04.562500,-8.29
2019-08-05 20:11:04.578125,-8.05
2019-08-05 20:11:04.593750,-8.49
2019-08-05 20:11:04.609375,-9.96
2019-08-05 20:11:04.625000,-12.4
2019-08-05 20:11:04.640625,-15.23
2019-08-05 20:11:04.656250,-17.68
2019-08-05 20:11:04.671875,-19.05
2019-08-05 20:11:04.687500,-19.08
2019-08-05 20:11:04.703125,-18.26
2019-08-05 20:11:04.718750,-17.47
2019-08-05 20:11:04.734375,-17.78
2019-08-05 20:11:04.750000,-19.81
2019-08-05 20:11:04.765625,-23.39
2019-08-05 20:11:04.781250,-27.64
2019-08-05 20:11:04.796875,-31.29
2019-08-05 20:11:04.812500,-33.41
2019-08-05 20:11:04.828125,-33.59
2019-08-05 20:11:04.843750,-32.32
2019-08-05 20:11:04.859375,-30.55
2019-08-05 20:11:04.875000,-29.36
2019-08-05 20:11:04.890625,-29.47
2019-08-05 20:11:04.906250,-31.29
2019-08-05 20:11:04.921875,-35.08
2019-08-05 20:11:04.937500,-40.72
2019-08-05 20:11:04.953125,-46.86
2019-08-05 20:11:04.968750,-50.74
2019-08-05 20:11:04.984375,-48.63
2019-08-05 20:11:05.000000,-37.12
2019-08-05 20:11:05.015625,-15.27
2019-08-05 20:11:05.031250,14.69
2019-08-05 20:11:05.046875,47.64
2019-08-05 20:11:05.062500,77.6
2019-08-05 20:11:05.078125,100.16
2019-08-05 20:11:05.093750,114.47
2019-08-05 20:11:05.109375,122.78
2019-08-05 20:11:05.125000,128.55
2019-08-05 20:11:05.140625,134.81
2019-08-05 20:11:05.156250,141.37
2019-08-05 20:11:05.171875,146.55
2019-08-05 20:11:05.187500,148.16
2019-08-05 20:11:05.203125,144.79
2019-08-05 20:11:05.218750,136.43
2019-08-05 20:11:05.234375,124.11
2019-08-05 20:11:05.250000,108.86
2019-08-05 20:11:05.265625,90.51
2019-08-05 20:11:05.281250,70.0
2019-08-05 20:11:05.296875,47.44
2019-08-05 20:11:05.312500,23.53
2019-08-05 20:11:05.328125,-0.21
2019-08-05 20:11:05.343750,-21.72
2019-08-05 20:11:05.359375,-39.1
2019-08-05 20:11:05.375000,-51.12
2019-08-05 20:11:05.390625,-57.68
2019-08-05 20:11:05.406250,-59.89
2019-08-05 20:11:05.421875,-59.08
2019-08-05 20:11:05.437500,-57.28
2019-08-05 20:11:05.453125,-55.75
2019-08-05 20:11:05.468750,-54.99
2019-08-05 20:11:05.484375,-54.83
2019-08-05 20:11:05.500000,-54.73
2019-08-05 20:11:05.515625,-54.33
2019-08-05 20:11:05.531250,-53.59
2019-08-05 20:11:05.546875,-53.05
2019-08-05 20:11:05.562500,-53.04
2019-08-05 20:11:05.578125,-54.39
2019-08-05 20:11:05.593750,-57.35
2019-08-05 20:11:05.609375,-61.72
2019-08-05 20:11:05.625000,-66.81
2019-08-05 20:11:05.640625,-71.7
2019-08-05 20:11:05.656250,-75.53
2019-08-05 20:11:05.671875,-77.56
2019-08-05 20:11:05.687500,-77.51
2019-08-05 20:11:05.703125,-75.12
2019-08-05 20:11:05.718750,-70.57
2019-08-05 20:11:05.734375,-64.09
2019-08-05 20:11:05.750000,-55.94
2019-08-05 20:11:05.765625,-46.51
2019-08-05 20:11:05.781250,-36.26
2019-08-05 20:11:05.796875,-25.72
2019-08-05 20:11:05.812500,-15.47
2019-08-05 20:11:05.828125,-6.1
2019-08-05 20:11:05.843750,2.09
2019-08-05 20:11:05.859375,8.71
2019-08-05 20:11:05.875000,13.67
2019-08-05 20:11:05.890625,17.09
2019-08-05 20:11:05.906250,19.02
2019-08-05 20:11:05.921875,19.68
2019-08-05 20:11:05.937500,19.26
2019-08-05 20:11:05.953125,17.94
2019-08-05 20:11:05.968750,15.85
2019-08-05 20:11:05.984375,13.13
2019-08-05 20:11:06.000000,9.99
2019-08-05 20:11:06.015625,6.56
2019-08-05 20:11:06.031250,3.09
2019-08-05 20:11:06.046875,-0.3
2019-08-05 20:11:06.062500,-3.44
2019-08-05 20:11:06.078125,-6.22
2019-08-05 20:11:06.093750,-8.44
2019-08-05 20:11:06.109375,-10.11
2019-08-05 20:11:06.125000,-11.23
2019-08-05 20:11:06.140625,-11.63
2019-08-05 20:11:06.156250,-11.45
2019-08-05 20:11:06.171875,-10.82
2019-08-05 20:11:06.187500,-10.0
2019-08-05 20:11:06.203125,-9.32
2019-08-05 20:11:06.218750,-9.23
2019-08-05 20:11:06.234375,-10.11
2019-08-05 20:11:06.250000,-12.36
2019-08-05 20:11:06.265625,-16.43
2019-08-05 20:11:06.281250,-22.03
2019-08-05 20:11:06.296875,-29.01
2019-08-05 20:11:06.312500,-37.07
2019-08-05 20:11:06.328125,-45.88
2019-08-05 20:11:06.343750,-55.03
2019-08-05 20:11:06.359375,-64.14
2019-08-05 20:11:06.375000,-73.0
2019-08-05 20:11:06.390625,-81.48
2019-08-05 20:11:06.406250,-89.82
2019-08-05 20:11:06.421875,-97.48
2019-08-05 20:11:06.437500,-104.36
2019-08-05 20:11:06.453125,-110.56
2019-08-05 20:11:06.468750,-116.19
2019-08-05 20:11:06.484375,-121.46
2019-08-05 20:11:06.500000,-126.55
2019-08-05 20:11:06.515625,-131.77
2019-08-05 20:11:06.531250,-137.44
2019-08-05 20:11:06.546875,-144.05
2019-08-05 20:11:06.562500,-150.92
2019-08-05 20:11:06.578125,-157.69
2019-08-05 20:11:06.593750,-164.0
2019-08-05 20:11:06.609375,-169.39
2019-08-05 20:11:06.625000,-173.23
2019-08-05 20:11:06.640625,-174.6
2019-08-05 20:11:06.656250,-172.06
2019-08-05 20:11:06.671875,-163.0
2019-08-05 20:11:06.687500,-151.63
2019-08-05 20:11:06.703125,-138.53
2019-08-05 20:11:06.718750,-123.85
2019-08-05 20:11:06.734375,-107.56
2019-08-05 20:11:06.750000,-89.63
2019-08-05 20:11:06.765625,-70.32
2019-08-05 20:11:06.781250,-50.27
2019-08-05 20:11:06.796875,-30.62
2019-08-05 20:11:06.812500,-12.93
2019-08-05 20:11:06.828125,0.94
2019-08-05 20:11:06.843750,10.45
2019-08-05 20:11:06.859375,15.31
2019-08-05 20:11:06.875000,15.83
2019-08-05 20:11:06.890625,13.09
2019-08-05 20:11:06.906250,8.55
2019-08-05 20:11:06.921875,3.75
2019-08-05 20:11:06.937500,0.08
2019-08-05 20:11:06.953125,-1.52
2019-08-05 20:11:06.968750,-0.56
2019-08-05 20:11:06.984375,4.06
2019-08-05 20:11:07.000000,13.13
2019-08-05 20:11:07.015625,27.22
2019-08-05 20:11:07.031250,46.69
2019-08-05 20:11:07.046875,71.34
2019-08-05 20:11:07.062500,100.13
2019-08-05 20:11:07.078125,131.2
2019-08-05 20:11:07.093750,162.12
2019-08-05 20:11:07.109375,190.3
2019-08-05 20:11:07.125000,213.98
2019-08-05 20:11:07.140625,232.08
2019-08-05 20:11:07.156250,244.35
2019-08-05 20:11:07.171875,251.34
2019-08-05 20:11:07.187500,254.37
2019-08-05 20:11:07.203125,255.37
2019-08-05 20:11:07.218750,256.61
2019-08-05 20:11:07.234375,260.02
2019-08-05 20:11:07.250000,266.18
2019-08-05 20:11:07.265625,273.7
2019-08-05 20:11:07.281250,278.92
2019-08-05 20:11:07.296875,277.14
2019-08-05 20:11:07.312500,264.66
2019-08-05 20:11:07.328125,240.52
2019-08-05 20:11:07.343750,207.24
2019-08-05 20:11:07.359375,169.91
2019-08-05 20:11:07.375000,134.15
2019-08-05 20:11:07.390625,104.08
2019-08-05 20:11:07.406250,81.41
2019-08-05 20:11:07.421875,65.44
2019-08-05 20:11:07.437500,54.13
2019-08-05 20:11:07.453125,45.31
2019-08-05 20:11:07.468750,37.15
2019-08-05 20:11:07.484375,28.27
2019-08-05 20:11:07.500000,17.72
2019-08-05 20:11:07.515625,5.16
2019-08-05 20:11:07.531250,-8.54
2019-08-05 20:11:07.546875,-20.81
2019-08-05 20:11:07.562500,-27.59
2019-08-05 20:11:07.578125,-24.34
2019-08-05 20:11:07.593750,-7.26
2019-08-05 20:11:07.609375,25.3
2019-08-05 20:11:07.625000,72.11
2019-08-05 20:11:07.640625,128.98
2019-08-05 20:11:07.656250,189.55
2019-08-05 20:11:07.671875,246.65
2019-08-05 20:11:07.687500,293.64
2019-08-05 20:11:07.703125,325.43
2019-08-05 20:11:07.718750,338.94
2019-08-05 20:11:07.734375,333.12
2019-08-05 20:11:07.750000,308.48
2019-08-05 20:11:07.765625,266.91
2019-08-05 20:11:07.781250,211.34
2019-08-05 20:11:07.796875,145.54
2019-08-05 20:11:07.812500,73.9
2019-08-05 20:11:07.828125,0.96
2019-08-05 20:11:07.843750,-69.08
2019-08-05 20:11:07.859375,-132.82
2019-08-05 20:11:07.875000,-187.62
2019-08-05 20:11:07.890625,-231.47
2019-08-05 20:11:07.906250,-262.83
2019-08-05 20:11:07.921875,-280.58
2019-08-05 20:11:07.937500,-284.33
2019-08-05 20:11:07.953125,-274.83
2019-08-05 20:11:07.968750,-253.93
2019-08-05 20:11:07.984375,-224.25
2019-08-05 20:11:08.000000,-188.83
2019-08-05 20:11:08.015625,-150.39
2019-08-05 20:11:08.031250,-111.31
2019-08-05 20:11:08.046875,-73.49
2019-08-05 20:11:08.062500,-38.49
2019-08-05 20:11:08.078125,-7.52
2019-08-05 20:11:08.093750,18.64
2019-08-05 20:11:08.109375,39.66
2019-08-05 20:11:08.125000,55.65
2019-08-05 20:11:08.140625,66.81
2019-08-05 20:11:08.156250,73.34
2019-08-05 20:11:08.171875,75.45
2019-08-05 20:11:08.187500,73.38
2019-08-05 20:11:08.203125,67.62
2019-08-05 20:11:08.218750,59.06
2019-08-05 20:11:08.234375,48.79
2019-08-05 20:11:08.250000,37.91
2019-08-05 20:11:08.265625,27.3
2019-08-05 20:11:08.281250,17.56
2019-08-05 20:11:08.296875,9.06
2019-08-05 20:11:08.312500,2.05
2019-08-05 20:11:08.328125,-3.34
2019-08-05 20:11:08.343750,-7.23
2019-08-05 20:11:08.359375,-10.05
2019-08-05 20:11:08.375000,-12.67
2019-08-05 20:11:08.390625,-16.0
2019-08-05 20:11:08.406250,-20.62
2019-08-05 20:11:08.421875,-26.49
2019-08-05 20:11:08.437500,-32.77
2019-08-05 20:11:08.453125,-38.3
2019-08-05 20:11:08.468750,-42.06
2019-08-05 20:11:08.484375,-43.65
2019-08-05 20:11:08.500000,-43.36
2019-08-05 20:11:08.515625,-42.01
2019-08-05 20:11:08.531250,-40.4
2019-08-05 20:11:08.546875,-38.95
2019-08-05 20:11:08.562500,-37.67
2019-08-05 20:11:08.578125,-36.27
2019-08-05 20:11:08.593750,-34.59
2019-08-05 20:11:08.609375,-32.73
2019-08-05 20:11:08.625000,-30.85
2019-08-05 20:11:08.640625,-28.95
2019-08-05 20:11:08.656250,-26.81
2019-08-05 20:11:08.671875,-24.06
2019-08-05 20:11:08.687500,-20.62
2019-08-05 20:11:08.703125,-17.05
2019-08-05 20:11:08.718750,-14.51
2019-08-05 20:11:08.734375,-14.52
2019-08-05 20:11:08.750000,-18.48
2019-08-05 20:11:08.765625,-27.22
2019-08-05 20:11:08.781250,-40.72
2019-08-05 20:11:08.796875,-58.36
2019-08-05 20:11:08.812500,-79.06
2019-08-05 20:11:08.828125,-101.67
2019-08-05 20:11:08.843750,-125.06
2019-08-05 20:11:08.859375,-148.02
2019-08-05 20:11:08.875000,-169.38
2019-08-05 20:11:08.890625,-187.86
2019-08-05 20:11:08.906250,-202.3
2019-08-05 20:11:08.921875,-211.66
2019-08-05 20:11:08.937500,-215.39
2019-08-05 20:11:08.953125,-213.37
2019-08-05 20:11:08.968750,-205.85
2019-08-05 20:11:08.984375,-193.08
2019-08-05 20:11:09.000000,-174.74
2019-08-05 20:11:09.015625,-149.83
2019-08-05 20:11:09.031250,-116.9
2019-08-05 20:11:09.046875,-74.7
2019-08-05 20:11:09.062500,-23.08
2019-08-05 20:11:09.078125,36.34
2019-08-05 20:11:09.093750,100.14
2019-08-05 20:11:09.109375,163.44
2019-08-05 20:11:09.125000,220.9
2019-08-05 20:11:09.140625,267.63
2019-08-05 20:11:09.156250,299.98
2019-08-05 20:11:09.171875,315.83
2019-08-05 20:11:09.187500,314.58
2019-08-05 20:11:09.203125,296.91
2019-08-05 20:11:09.218750,264.57
2019-08-05 20:11:09.234375,220.37
2019-08-05 20:11:09.250000,168.16
2019-08-05 20:11:09.265625,112.67
2019-08-05 20:11:09.281250,58.98
2019-08-05 20:11:09.296875,11.72
2019-08-05 20:11:09.312500,-25.87
2019-08-05 20:11:09.328125,-52.67
2019-08-05 20:11:09.343750,-69.63
2019-08-05 20:11:09.359375,-79.0
2019-08-05 20:11:09.375000,-83.05
2019-08-05 20:11:09.390625,-83.06
2019-08-05 20:11:09.406250,-79.3
2019-08-05 20:11:09.421875,-71.52
2019-08-05 20:11:09.437500,-59.97
2019-08-05 20:11:09.453125,-46.05
2019-08-05 20:11:09.468750,-32.23
2019-08-05 20:11:09.484375,-21.29
2019-08-05 20:11:09.500000,-15.34
2019-08-05 20:11:09.515625,-15.07
2019-08-05 20:11:09.531250,-19.81
2019-08-05 20:11:09.546875,-28.09
2019-08-05 20:11:09.562500,-38.35
2019-08-05 20:11:09.578125,-49.59
2019-08-05 20:11:09.593750,-61.22
2019-08-05 20:11:09.609375,-72.81
2019-08-05 20:11:09.625000,-83.51
2019-08-05 20:11:09.640625,-91.95
2019-08-05 20:11:09.656250,-96.47
2019-08-05 20:11:09.671875,-95.66
2019-08-05 20:11:09.687500,-88.99
2019-08-05 20:11:09.703125,-76.91
2019-08-05 20:11:09.718750,-60.75
2019-08-05 20:11:09.734375,-42.12
2019-08-05 20:11:09.750000,-22.68
2019-08-05 20:11:09.765625,-3.8
2019-08-05 20:11:09.781250,13.38
2019-08-05 20:11:09.796875,27.88
2019-08-05 20:11:09.812500,38.89
2019-08-05 20:11:09.828125,45.93
2019-08-05 20:11:09.843750,49.41
2019-08-05 20:11:09.859375,50.66
2019-08-05 20:11:09.875000,51.98
2019-08-05 20:11:09.890625,55.8
2019-08-05 20:11:09.906250,63.91
2019-08-05 20:11:09.921875,76.93
2019-08-05 20:11:09.937500,94.31
2019-08-05 20:11:09.953125,114.81
2019-08-05 20:11:09.968750,137.01
2019-08-05 20:11:09.984375,159.78
2019-08-05 20:11:10.000000,181.8
2019-08-05 20:11:10.015625,201.31
2019-08-05 20:11:10.031250,215.67
2019-08-05 20:11:10.046875,221.88
2019-08-05 20:11:10.062500,217.98
2019-08-05 20:11:10.078125,204.06
2019-08-05 20:11:10.093750,182.69
2019-08-05 20:11:10.109375,157.87
2019-08-05 20:11:10.125000,133.3
2019-08-05 20:11:10.140625,110.79
2019-08-05 20:11:10.156250,89.91
2019-08-05 20:11:10.171875,68.89
2019-08-05 20:11:10.187500,46.19
2019-08-05 20:11:10.203125,21.77
2019-08-05 20:11:10.218750,-3.0
2019-08-05 20:11:10.234375,-26.17
2019-08-05 20:11:10.250000,-46.37
2019-08-05 20:11:10.265625,-63.44
2019-08-05 20:11:10.281250,-78.23
2019-08-05 20:11:10.296875,-91.66
2019-08-05 20:11:10.312500,-103.96
2019-08-05 20:11:10.328125,-114.7
2019-08-05 20:11:10.343750,-123.09
2019-08-05 20:11:10.359375,-128.62
2019-08-05 20:11:10.375000,-131.36
2019-08-05 20:11:10.390625,-131.8
2019-08-05 20:11:10.406250,-130.52
2019-08-05 20:11:10.421875,-127.84
2019-08-05 20:11:10.437500,-123.5
2019-08-05 20:11:10.453125,-116.69
2019-08-05 20:11:10.468750,-106.22
2019-08-05 20:11:10.484375,-90.8
2019-08-05 20:11:10.500000,-69.63
2019-08-05 20:11:10.515625,-42.9
2019-08-05 20:11:10.531250,-12.29
2019-08-05 20:11:10.546875,19.13
2019-08-05 20:11:10.562500,47.59
2019-08-05 20:11:10.578125,69.81
2019-08-05 20:11:10.593750,84.11
2019-08-05 20:11:10.609375,90.79
2019-08-05 20:11:10.625000,91.62
2019-08-05 20:11:10.640625,88.77
2019-08-05 20:11:10.656250,83.91
2019-08-05 20:11:10.671875,77.73
2019-08-05 20:11:10.687500,70.41
2019-08-05 20:11:10.703125,62.47
2019-08-05 20:11:10.718750,55.05
2019-08-05 20:11:10.734375,49.91
2019-08-05 20:11:10.750000,48.82
2019-08-05 20:11:10.765625,52.82
2019-08-05 20:11:10.781250,61.81
2019-08-05 20:11:10.796875,74.65
2019-08-05 20:11:10.812500,89.43
2019-08-05 20:11:10.828125,103.98
2019-08-05 20:11:10.843750,116.4
2019-08-05 20:11:10.859375,125.46
2019-08-05 20:11:10.875000,131.18
2019-08-05 20:11:10.890625,135.06
2019-08-05 20:11:10.906250,139.74
2019-08-05 20:11:10.921875,147.98
2019-08-05 20:11:10.937500,161.65
2019-08-05 20:11:10.953125,180.68
2019-08-05 20:11:10.968750,203.07
2019-08-05 20:11:10.984375,225.5
2019-08-05 20:11:11.000000,244.4
2019-08-05 20:11:11.015625,256.92
2019-08-05 20:11:11.031250,261.35
2019-08-05 20:11:11.046875,257.16
2019-08-05 20:11:11.062500,244.69
2019-08-05 20:11:11.078125,225.02
2019-08-05 20:11:11.093750,199.79
2019-08-05 20:11:11.109375,171.23
2019-08-05 20:11:11.125000,141.79
2019-08-05 20:11:11.140625,113.37
2019-08-05 20:11:11.156250,86.54
2019-08-05 20:11:11.171875,60.04
2019-08-05 20:11:11.187500,31.21
2019-08-05 20:11:11.203125,-2.62
2019-08-05 20:11:11.218750,-42.3
2019-08-05 20:11:11.234375,-85.86
2019-08-05 20:11:11.250000,-128.53
2019-08-05 20:11:11.265625,-164.25
2019-08-05 20:11:11.281250,-187.74
2019-08-05 20:11:11.296875,-196.28
2019-08-05 20:11:11.312500,-190.49
2019-08-05 20:11:11.328125,-173.88
2019-08-05 20:11:11.343750,-151.64
2019-08-05 20:11:11.359375,-129.16
2019-08-05 20:11:11.375000,-111.11
2019-08-05 20:11:11.390625,-101.02
2019-08-05 20:11:11.406250,-101.06
2019-08-05 20:11:11.421875,-112.05
2019-08-05 20:11:11.437500,-133.42
2019-08-05 20:11:11.453125,-163.17
2019-08-05 20:11:11.468750,-198.22
2019-08-05 20:11:11.484375,-234.97
2019-08-05 20:11:11.500000,-269.93
2019-08-05 20:11:11.515625,-300.72
2019-08-05 20:11:11.531250,-326.49
2019-08-05 20:11:11.546875,-348.31
2019-08-05 20:11:11.562500,-368.29
2019-08-05 20:11:11.578125,-388.25
2019-08-05 20:11:11.593750,-408.03
2019-08-05 20:11:11.609375,-424.7
2019-08-05 20:11:11.625000,-433.04
2019-08-05 20:11:11.640625,-427.39
2019-08-05 20:11:11.656250,-403.95
2019-08-05 20:11:11.671875,-362.14
2019-08-05 20:11:11.687500,-304.75
2019-08-05 20:11:11.703125,-236.76
2019-08-05 20:11:11.718750,-164.02
2019-08-05 20:11:11.734375,-92.18
2019-08-05 20:11:11.750000,-26.4
2019-08-05 20:11:11.765625,28.8
2019-08-05 20:11:11.781250,69.98
2019-08-05 20:11:11.796875,95.47
2019-08-05 20:11:11.812500,106.23
2019-08-05 20:11:11.828125,105.74
2019-08-05 20:11:11.843750,99.04
2019-08-05 20:11:11.859375,90.99
2019-08-05 20:11:11.875000,84.85
2019-08-05 20:11:11.890625,81.66
2019-08-05 20:11:11.906250,80.83
2019-08-05 20:11:11.921875,81.19
2019-08-05 20:11:11.937500,81.66
2019-08-05 20:11:11.953125,81.7
2019-08-05 20:11:11.968750,81.17
2019-08-05 20:11:11.984375,80.25
2019-08-05 20:11:12.000000,79.58
2019-08-05 20:11:12.015625,80.05
2019-08-05 20:11:12.031250,82.82
2019-08-05 20:11:12.046875,88.8
2019-08-05 20:11:12.062500,98.05
2019-08-05 20:11:12.078125,109.16
2019-08-05 20:11:12.093750,119.46
2019-08-05 20:11:12.109375,125.92
2019-08-05 20:11:12.125000,126.27
2019-08-05 20:11:12.140625,119.78
2019-08-05 20:11:12.156250,107.14
2019-08-05 20:11:12.171875,90.1
2019-08-05 20:11:12.187500,70.64
2019-08-05 20:11:12.203125,50.59
2019-08-05 20:11:12.218750,31.3
2019-08-05 20:11:12.234375,13.78
2019-08-05 20:11:12.250000,-1.13
2019-08-05 20:11:12.265625,-12.91
2019-08-05 20:11:12.281250,-21.4
2019-08-05 20:11:12.296875,-27.26
2019-08-05 20:11:12.312500,-31.17
2019-08-05 20:11:12.328125,-33.32
2019-08-05 20:11:12.343750,-33.0
2019-08-05 20:11:12.359375,-29.3
2019-08-05 20:11:12.375000,-21.8
2019-08-05 20:11:12.390625,-11.23
2019-08-05 20:11:12.406250,0.31
2019-08-05 20:11:12.421875,9.9
2019-08-05 20:11:12.437500,13.73
2019-08-05 20:11:12.453125,9.05
2019-08-05 20:11:12.468750,-4.59
2019-08-05 20:11:12.484375,-25.59
2019-08-05 20:11:12.500000,-52.17
2019-08-05 20:11:12.515625,-83.48
2019-08-05 20:11:12.531250,-119.31
2019-08-05 20:11:12.546875,-159.61
2019-08-05 20:11:12.562500,-202.68
2019-08-05 20:11:12.578125,-247.16
2019-08-05 20:11:12.593750,-290.03
2019-08-05 20:11:12.609375,-326.22
2019-08-05 20:11:12.625000,-349.96
2019-08-05 20:11:12.640625,-358.19
2019-08-05 20:11:12.656250,-351.67
2019-08-05 20:11:12.671875,-333.78
2019-08-05 20:11:12.687500,-310.5
2019-08-05 20:11:12.703125,-288.12
2019-08-05 20:11:12.718750,-276.18
2019-08-05 20:11:12.734375,-282.22
2019-08-05 20:11:12.750000,-306.81
2019-08-05 20:11:12.765625,-341.39
2019-08-05 20:11:12.781250,-371.98
2019-08-05 20:11:12.796875,-383.33
2019-08-05 20:11:12.812500,-362.51
2019-08-05 20:11:12.828125,-304.79
2019-08-05 20:11:12.843750,-213.87
2019-08-05 20:11:12.859375,-105.55
2019-08-05 20:11:12.875000,0.4
2019-08-05 20:11:12.890625,87.7
2019-08-05 20:11:12.906250,147.37
2019-08-05 20:11:12.921875,174.32
2019-08-05 20:11:12.937500,165.93
2019-08-05 20:11:12.953125,124.02
2019-08-05 20:11:12.968750,53.36
2019-08-05 20:11:12.984375,-5.21
2019-08-05 20:11:13.000000,-14.3
2019-08-05 20:11:13.015625,33.9
2019-08-05 20:11:13.031250,115.69
2019-08-05 20:11:13.046875,204.17
2019-08-05 20:11:13.062500,283.15
2019-08-05 20:11:13.078125,339.75
2019-08-05 20:11:13.093750,381.89
2019-08-05 20:11:13.109375,412.83
2019-08-05 20:11:13.125000,432.31
2019-08-05 20:11:13.140625,435.0
2019-08-05 20:11:13.156250,416.76
2019-08-05 20:11:13.171875,375.73
2019-08-05 20:11:13.187500,317.56
2019-08-05 20:11:13.203125,250.65
2019-08-05 20:11:13.218750,183.11
2019-08-05 20:11:13.234375,123.18
2019-08-05 20:11:13.250000,75.42
2019-08-05 20:11:13.265625,40.9
2019-08-05 20:11:13.281250,16.38
2019-08-05 20:11:13.296875,-2.08
2019-08-05 20:11:13.312500,-16.47
2019-08-05 20:11:13.328125,-26.22
2019-08-05 20:11:13.343750,-31.38
2019-08-05 20:11:13.359375,-34.15
2019-08-05 20:11:13.375000,-37.74
2019-08-05 20:11:13.390625,-34.41
2019-08-05 20:11:13.406250,-25.49
2019-08-05 20:11:13.421875,-18.2
2019-08-05 20:11:13.437500,-16.12
2019-08-05 20:11:13.453125,-14.23
2019-08-05 20:11:13.468750,-3.51
2019-08-05 20:11:13.484375,20.84
2019-08-05 20:11:13.500000,56.06
2019-08-05 20:11:13.515625,94.48
2019-08-05 20:11:13.531250,126.65
2019-08-05 20:11:13.546875,144.18
2019-08-05 20:11:13.562500,144.58
2019-08-05 20:11:13.578125,130.41
2019-08-05 20:11:13.593750,107.46
2019-08-05 20:11:13.609375,81.34
2019-08-05 20:11:13.625000,56.26
2019-08-05 20:11:13.640625,34.69
2019-08-05 20:11:13.656250,20.54
2019-08-05 20:11:13.671875,16.95
2019-08-05 20:11:13.687500,22.52
2019-08-05 20:11:13.703125,33.83
2019-08-05 20:11:13.718750,44.43
2019-08-05 20:11:13.734375,49.23
2019-08-05 20:11:13.750000,45.68
2019-08-05 20:11:13.765625,35.94
2019-08-05 20:11:13.781250,27.0
2019-08-05 20:11:13.796875,27.33
2019-08-05 20:11:13.812500,42.2
2019-08-05 20:11:13.828125,69.6
2019-08-05 20:11:13.843750,104.54
2019-08-05 20:11:13.859375,137.85
2019-08-05 20:11:13.875000,162.45
2019-08-05 20:11:13.890625,171.08
2019-08-05 20:11:13.906250,156.31
2019-08-05 20:11:13.921875,117.14
2019-08-05 20:11:13.937500,59.75
2019-08-05 20:11:13.953125,-6.1
2019-08-05 20:11:13.968750,-72.72
2019-08-05 20:11:13.984375,-131.11
2019-08-05 20:11:14.000000,-183.83
2019-08-05 20:11:14.015625,-227.94
2019-08-05 20:11:14.031250,-261.46
2019-08-05 20:11:14.046875,-285.9
2019-08-05 20:11:14.062500,-306.65
2019-08-05 20:11:14.078125,-334.64
2019-08-05 20:11:14.093750,-368.28
2019-08-05 20:11:14.109375,-411.1
2019-08-05 20:11:14.125000,-440.28
2019-08-05 20:11:14.140625,-438.51
2019-08-05 20:11:14.156250,-398.5
2019-08-05 20:11:14.171875,-329.06
2019-08-05 20:11:14.187500,-246.47
2019-08-05 20:11:14.203125,-163.99
2019-08-05 20:11:14.218750,-90.51
2019-08-05 20:11:14.234375,-29.73
2019-08-05 20:11:14.250000,16.33
2019-08-05 20:11:14.265625,48.79
2019-08-05 20:11:14.281250,66.39
2019-08-05 20:11:14.296875,72.34
2019-08-05 20:11:14.312500,70.56
2019-08-05 20:11:14.328125,67.59
2019-08-05 20:11:14.343750,72.89
2019-08-05 20:11:14.359375,91.92
2019-08-05 20:11:14.375000,124.82
2019-08-05 20:11:14.390625,165.29
2019-08-05 20:11:14.406250,206.05
2019-08-05 20:11:14.421875,238.85
2019-08-05 20:11:14.437500,261.02
2019-08-05 20:11:14.453125,276.54
2019-08-05 20:11:14.468750,282.51
2019-08-05 20:11:14.484375,285.44
2019-08-05 20:11:14.500000,291.98
2019-08-05 20:11:14.515625,307.12
2019-08-05 20:11:14.531250,332.24
2019-08-05 20:11:14.546875,366.93
2019-08-05 20:11:14.562500,406.48
2019-08-05 20:11:14.578125,443.45
2019-08-05 20:11:14.593750,468.32
2019-08-05 20:11:14.609375,471.9
2019-08-05 20:11:14.625000,450.21
2019-08-05 20:11:14.640625,402.63
2019-08-05 20:11:14.656250,333.9
2019-08-05 20:11:14.671875,251.87
2019-08-05 20:11:14.687500,167.06
2019-08-05 20:11:14.703125,88.08
2019-08-05 20:11:14.718750,18.84
2019-08-05 20:11:14.734375,-40.53
2019-08-05 20:11:14.750000,-91.52
2019-08-05 20:11:14.765625,-132.48
2019-08-05 20:11:14.781250,-161.57
2019-08-05 20:11:14.796875,-176.06
2019-08-05 20:11:14.812500,-176.13
2019-08-05 20:11:14.828125,-162.19
2019-08-05 20:11:14.843750,-136.04
2019-08-05 20:11:14.859375,-102.16
2019-08-05 20:11:14.875000,-65.14
2019-08-05 20:11:14.890625,-29.63
2019-08-05 20:11:14.906250,2.06
2019-08-05 20:11:14.921875,25.46
2019-08-05 20:11:14.937500,37.38
2019-08-05 20:11:14.953125,30.63
2019-08-05 20:11:14.968750,5.24
2019-08-05 20:11:14.984375,-32.66
2019-08-05 20:11:15.000000,-75.41
2019-08-05 20:11:15.015625,-114.18
2019-08-05 20:11:15.031250,-150.59
2019-08-05 20:11:15.046875,-179.96
2019-08-05 20:11:15.062500,-201.28
2019-08-05 20:11:15.078125,-217.3
2019-08-05 20:11:15.093750,-237.73
2019-08-05 20:11:15.109375,-270.46
2019-08-05 20:11:15.125000,-304.95
2019-08-05 20:11:15.140625,-334.64
2019-08-05 20:11:15.156250,-354.77
2019-08-05 20:11:15.171875,-363.62
2019-08-05 20:11:15.187500,-361.16
2019-08-05 20:11:15.203125,-349.1
2019-08-05 20:11:15.218750,-301.1
2019-08-05 20:11:15.234375,-211.9
2019-08-05 20:11:15.250000,-98.78
2019-08-05 20:11:15.265625,4.72
2019-08-05 20:11:15.281250,71.89
2019-08-05 20:11:15.296875,92.64
2019-08-05 20:11:15.312500,71.7
2019-08-05 20:11:15.328125,23.27
2019-08-05 20:11:15.343750,-36.12
2019-08-05 20:11:15.359375,-92.41
2019-08-05 20:11:15.375000,-148.31
2019-08-05 20:11:15.390625,-203.55
2019-08-05 20:11:15.406250,-259.97
2019-08-05 20:11:15.421875,-314.36
2019-08-05 20:11:15.437500,-358.2
2019-08-05 20:11:15.453125,-380.32
2019-08-05 20:11:15.468750,-372.72
2019-08-05 20:11:15.484375,-334.68
2019-08-05 20:11:15.500000,-273.1
2019-08-05 20:11:15.515625,-203.19
2019-08-05 20:11:15.531250,-115.65
2019-08-05 20:11:15.546875,-29.64
2019-08-05 20:11:15.562500,30.39
2019-08-05 20:11:15.578125,53.62
2019-08-05 20:11:15.593750,52.44
2019-08-05 20:11:15.609375,49.76
2019-08-05 20:11:15.625000,66.45
2019-08-05 20:11:15.640625,106.76
2019-08-05 20:11:15.656250,162.95
2019-08-05 20:11:15.671875,227.76
2019-08-05 20:11:15.687500,291.75
2019-08-05 20:11:15.703125,355.02
2019-08-05 20:11:15.718750,411.09
2019-08-05 20:11:15.734375,460.37
2019-08-05 20:11:15.750000,503.47
2019-08-05 20:11:15.765625,538.0
2019-08-05 20:11:15.781250,559.35
2019-08-05 20:11:15.796875,562.52
2019-08-05 20:11:15.812500,548.77
2019-08-05 20:11:15.828125,517.64
2019-08-05 20:11:15.843750,472.36
2019-08-05 20:11:15.859375,418.56
2019-08-05 20:11:15.875000,363.49
2019-08-05 20:11:15.890625,310.43
2019-08-05 20:11:15.906250,257.51
2019-08-05 20:11:15.921875,199.55
2019-08-05 20:11:15.937500,116.06
2019-08-05 20:11:15.953125,12.46
2019-08-05 20:11:15.968750,-89.36
2019-08-05 20:11:15.984375,-164.8
2019-08-05 20:11:16.000000,-201.44
2019-08-05 20:11:16.015625,-199.72
2019-08-05 20:11:16.031250,-171.06
2019-08-05 20:11:16.046875,-132.29
2019-08-05 20:11:16.062500,-98.82
2019-08-05 20:11:16.078125,-79.39
2019-08-05 20:11:16.093750,-71.43
2019-08-05 20:11:16.109375,-70.23
2019-08-05 20:11:16.125000,-71.49
2019-08-05 20:11:16.140625,-73.0
2019-08-05 20:11:16.156250,-73.49
2019-08-05 20:11:16.171875,-73.0
2019-08-05 20:11:16.187500,-71.79
2019-08-05 20:11:16.203125,-70.14
2019-08-05 20:11:16.218750,-68.91
2019-08-05 20:11:16.234375,-68.43
2019-08-05 20:11:16.250000,-72.32
2019-08-05 20:11:16.265625,-85.24
2019-08-05 20:11:16.281250,-108.73
2019-08-05 20:11:16.296875,-139.33
2019-08-05 20:11:16.312500,-170.28
2019-08-05 20:11:16.328125,-194.85
2019-08-05 20:11:16.343750,-208.4
2019-08-05 20:11:16.359375,-208.65
2019-08-05 20:11:16.375000,-193.7
2019-08-05 20:11:16.390625,-164.04
2019-08-05 20:11:16.406250,-122.85
2019-08-05 20:11:16.421875,-75.44
2019-08-05 20:11:16.437500,-28.7
2019-08-05 20:11:16.453125,10.04
2019-08-05 20:11:16.468750,35.06
2019-08-05 20:11:16.484375,44.52
2019-08-05 20:11:16.500000,41.21
2019-08-05 20:11:16.515625,31.77
2019-08-05 20:11:16.531250,22.43
2019-08-05 20:11:16.546875,16.17
2019-08-05 20:11:16.562500,13.33
2019-08-05 20:11:16.578125,12.23
2019-08-05 20:11:16.593750,11.17
2019-08-05 20:11:16.609375,9.48
2019-08-05 20:11:16.625000,7.52
2019-08-05 20:11:16.640625,6.04
2019-08-05 20:11:16.656250,5.74
2019-08-05 20:11:16.671875,6.54
2019-08-05 20:11:16.687500,7.35
2019-08-05 20:11:16.703125,7.32
2019-08-05 20:11:16.718750,5.99
2019-08-05 20:11:16.734375,3.55
2019-08-05 20:11:16.750000,0.52
2019-08-05 20:11:16.765625,-2.55
2019-08-05 20:11:16.781250,-5.49
2019-08-05 20:11:16.796875,-8.52
2019-08-05 20:11:16.812500,-12.01
2019-08-05 20:11:16.828125,-16.58
2019-08-05 20:11:16.843750,-22.54
2019-08-05 20:11:16.859375,-29.78
2019-08-05 20:11:16.875000,-37.59
2019-08-05 20:11:16.890625,-44.94
2019-08-05 20:11:16.906250,-50.77
2019-08-05 20:11:16.921875,-54.32
2019-08-05 20:11:16.937500,-55.38
2019-08-05 20:11:16.953125,-53.95
2019-08-05 20:11:16.968750,-50.19
2019-08-05 20:11:16.984375,-44.48
2019-08-05 20:11:17.000000,-37.29
2019-08-05 20:11:17.015625,-29.03
2019-08-05 20:11:17.031250,-20.12
2019-08-05 20:11:17.046875,-11.02
2019-08-05 20:11:17.062500,-2.2
2019-08-05 20:11:17.078125,5.77
2019-08-05 20:11:17.093750,12.47
2019-08-05 20:11:17.109375,17.58
2019-08-05 20:11:17.125000,21.03
2019-08-05 20:11:17.140625,22.96
2019-08-05 20:11:17.156250,23.58
2019-08-05 20:11:17.171875,23.29
2019-08-05 20:11:17.187500,22.4
2019-08-05 20:11:17.203125,21.23
2019-08-05 20:11:17.218750,19.96
2019-08-05 20:11:17.234375,18.78
2019-08-05 20:11:17.250000,17.89
2019-08-05 20:11:17.265625,17.61
2019-08-05 20:11:17.281250,18.21
2019-08-05 20:11:17.296875,19.74
2019-08-05 20:11:17.312500,22.27
2019-08-05 20:11:17.328125,25.69
2019-08-05 20:11:17.343750,29.86
2019-08-05 20:11:17.359375,34.48
2019-08-05 20:11:17.375000,39.29
2019-08-05 20:11:17.390625,44.09
2019-08-05 20:11:17.406250,48.81
2019-08-05 20:11:17.421875,53.4
2019-08-05 20:11:17.437500,57.74
2019-08-05 20:11:17.453125,61.68
2019-08-05 20:11:17.468750,65.02
2019-08-05 20:11:17.484375,67.65
2019-08-05 20:11:17.500000,69.49
2019-08-05 20:11:17.515625,70.7
2019-08-05 20:11:17.531250,71.66
2019-08-05 20:11:17.546875,72.88
2019-08-05 20:11:17.562500,74.79
2019-08-05 20:11:17.578125,77.57
2019-08-05 20:11:17.593750,81.25
2019-08-05 20:11:17.609375,85.85
2019-08-05 20:11:17.625000,91.53
2019-08-05 20:11:17.640625,98.46
2019-08-05 20:11:17.656250,106.95
2019-08-05 20:11:17.671875,117.31
2019-08-05 20:11:17.687500,129.53
2019-08-05 20:11:17.703125,142.91
2019-08-05 20:11:17.718750,156.07
2019-08-05 20:11:17.734375,167.36
2019-08-05 20:11:17.750000,175.4
2019-08-05 20:11:17.765625,179.94
2019-08-05 20:11:17.781250,181.87
2019-08-05 20:11:17.796875,182.95
2019-08-05 20:11:17.812500,184.96
2019-08-05 20:11:17.828125,188.77
2019-08-05 20:11:17.843750,193.7
2019-08-05 20:11:17.859375,197.46
2019-08-05 20:11:17.875000,197.36
2019-08-05 20:11:17.890625,191.11
2019-08-05 20:11:17.906250,177.37
2019-08-05 20:11:17.921875,155.44
2019-08-05 20:11:17.937500,124.94
2019-08-05 20:11:17.953125,86.33
2019-08-05 20:11:17.968750,42.3
2019-08-05 20:11:17.984375,-2.81
2019-08-05 20:11:18.000000,-44.78
2019-08-05 20:11:18.015625,-79.36
2019-08-05 20:11:18.031250,-103.48
2019-08-05 20:11:18.046875,-116.3
2019-08-05 20:11:18.062500,-119.94
2019-08-05 20:11:18.078125,-118.68
2019-08-05 20:11:18.093750,-116.95
2019-08-05 20:11:18.109375,-117.03
2019-08-05 20:11:18.125000,-119.16
2019-08-05 20:11:18.140625,-124.16
2019-08-05 20:11:18.156250,-131.41
2019-08-05 20:11:18.171875,-138.86
2019-08-05 20:11:18.187500,-143.49
2019-08-05 20:11:18.203125,-142.67
2019-08-05 20:11:18.218750,-135.08
2019-08-05 20:11:18.234375,-120.83
2019-08-05 20:11:18.250000,-100.65
2019-08-05 20:11:18.265625,-77.1
2019-08-05 20:11:18.281250,-57.72
2019-08-05 20:11:18.296875,-49.23
2019-08-05 20:11:18.312500,-54.84
2019-08-05 20:11:18.328125,-73.26
2019-08-05 20:11:18.343750,-100.83
2019-08-05 20:11:18.359375,-133.88
2019-08-05 20:11:18.375000,-170.3
2019-08-05 20:11:18.390625,-208.68
2019-08-05 20:11:18.406250,-250.53
2019-08-05 20:11:18.421875,-303.03
2019-08-05 20:11:18.437500,-371.29
2019-08-05 20:11:18.453125,-454.75
2019-08-05 20:11:18.468750,-546.68
2019-08-05 20:11:18.484375,-637.76
2019-08-05 20:11:18.500000,-719.76
2019-08-05 20:11:18.515625,-787.76
2019-08-05 20:11:18.531250,-838.46
2019-08-05 20:11:18.546875,-836.52
2019-08-05 20:11:18.562500,-761.39
2019-08-05 20:11:18.578125,-616.47
2019-08-05 20:11:18.593750,-429.99
2019-08-05 20:11:18.609375,-237.18
2019-08-05 20:11:18.625000,-62.38
2019-08-05 20:11:18.640625,84.93
2019-08-05 20:11:18.656250,197.41
2019-08-05 20:11:18.671875,286.89
2019-08-05 20:11:18.687500,359.42
2019-08-05 20:11:18.703125,410.79
2019-08-05 20:11:18.718750,436.04
2019-08-05 20:11:18.734375,434.48
2019-08-05 20:11:18.750000,411.55
2019-08-05 20:11:18.765625,373.62
2019-08-05 20:11:18.781250,329.63
2019-08-05 20:11:18.796875,286.4
2019-08-05 20:11:18.812500,254.45
2019-08-05 20:11:18.828125,239.76
2019-08-05 20:11:18.843750,237.55
2019-08-05 20:11:18.859375,237.1
2019-08-05 20:11:18.875000,228.08
2019-08-05 20:11:18.890625,206.24
2019-08-05 20:11:18.906250,174.38
2019-08-05 20:11:18.921875,139.7
2019-08-05 20:11:18.937500,109.21
2019-08-05 20:11:18.953125,88.35
2019-08-05 20:11:18.968750,76.84
2019-08-05 20:11:18.984375,69.41
2019-08-05 20:11:19.000000,61.34
2019-08-05 20:11:19.015625,51.39
2019-08-05 20:11:19.031250,42.14
2019-08-05 20:11:19.046875,37.13
2019-08-05 20:11:19.062500,38.44
2019-08-05 20:11:19.078125,44.97
2019-08-05 20:11:19.093750,54.14
2019-08-05 20:11:19.109375,61.23
2019-08-05 20:11:19.125000,61.56
2019-08-05 20:11:19.140625,52.91
2019-08-05 20:11:19.156250,36.31
2019-08-05 20:11:19.171875,15.6
2019-08-05 20:11:19.187500,-4.65
2019-08-05 20:11:19.203125,-20.79
2019-08-05 20:11:19.218750,-31.24
2019-08-05 20:11:19.234375,-35.8
2019-08-05 20:11:19.250000,-36.24
2019-08-05 20:11:19.265625,-35.09
2019-08-05 20:11:19.281250,-34.39
2019-08-05 20:11:19.296875,-35.29
2019-08-05 20:11:19.312500,-38.1
2019-08-05 20:11:19.328125,-42.51
2019-08-05 20:11:19.343750,-48.31
2019-08-05 20:11:19.359375,-55.41
2019-08-05 20:11:19.375000,-63.48
2019-08-05 20:11:19.390625,-71.8
2019-08-05 20:11:19.406250,-79.2
2019-08-05 20:11:19.421875,-84.14
2019-08-05 20:11:19.437500,-85.35
2019-08-05 20:11:19.453125,-82.16
2019-08-05 20:11:19.468750,-74.83
2019-08-05 20:11:19.484375,-64.43
2019-08-05 20:11:19.500000,-52.55
2019-08-05 20:11:19.515625,-41.27
2019-08-05 20:11:19.531250,-31.63
2019-08-05 20:11:19.546875,-24.58
2019-08-05 20:11:19.562500,-20.69
2019-08-05 20:11:19.578125,-20.48
2019-08-05 20:11:19.593750,-24.29
2019-08-05 20:11:19.609375,-32.31
2019-08-05 20:11:19.625000,-44.09
2019-08-05 20:11:19.640625,-58.51
2019-08-05 20:11:19.656250,-74.29
2019-08-05 20:11:19.671875,-88.36
2019-08-05 20:11:19.687500,-98.17
2019-08-05 20:11:19.703125,-101.62
2019-08-05 20:11:19.718750,-97.93
2019-08-05 20:11:19.734375,-87.15
2019-08-05 20:11:19.750000,-69.56
2019-08-05 20:11:19.765625,-45.02
2019-08-05 20:11:19.781250,-12.94
2019-08-05 20:11:19.796875,27.73
2019-08-05 20:11:19.812500,80.69
2019-08-05 20:11:19.828125,145.29
2019-08-05 20:11:19.843750,219.83
2019-08-05 20:11:19.859375,300.26
2019-08-05 20:11:19.875000,380.87
2019-08-05 20:11:19.890625,455.79
2019-08-05 20:11:19.906250,520.09
2019-08-05 20:11:19.921875,570.1
2019-08-05 20:11:19.937500,589.8
2019-08-05 20:11:19.953125,570.08
2019-08-05 20:11:19.968750,509.82
2019-08-05 20:11:19.984375,417.68
2019-08-05 20:11:20.000000,307.24
2019-08-05 20:11:20.015625,192.01
2019-08-05 20:11:20.031250,82.36
2019-08-05 20:11:20.046875,-15.05
2019-08-05 20:11:20.062500,-96.77
2019-08-05 20:11:20.078125,-161.47
2019-08-05 20:11:20.093750,-206.41
2019-08-05 20:11:20.109375,-233.79
2019-08-05 20:11:20.125000,-246.54
2019-08-05 20:11:20.140625,-248.61
2019-08-05 20:11:20.156250,-244.21
2019-08-05 20:11:20.171875,-236.52
2019-08-05 20:11:20.187500,-227.08
2019-08-05 20:11:20.203125,-216.09
2019-08-05 20:11:20.218750,-202.73
2019-08-05 20:11:20.234375,-184.58
2019-08-05 20:11:20.250000,-160.5
2019-08-05 20:11:20.265625,-130.46
2019-08-05 20:11:20.281250,-95.83
2019-08-05 20:11:20.296875,-58.35
2019-08-05 20:11:20.312500,-18.92
2019-08-05 20:11:20.328125,22.7
2019-08-05 20:11:20.343750,64.62
2019-08-05 20:11:20.359375,104.51
2019-08-05 20:11:20.375000,140.88
2019-08-05 20:11:20.390625,172.66
2019-08-05 20:11:20.406250,199.68
2019-08-05 20:11:20.421875,220.82
2019-08-05 20:11:20.437500,232.81
2019-08-05 20:11:20.453125,230.51
2019-08-05 20:11:20.468750,208.94
2019-08-05 20:11:20.484375,166.42
2019-08-05 20:11:20.500000,107.01
2019-08-05 20:11:20.515625,40.44
2019-08-05 20:11:20.531250,-21.59
2019-08-05 20:11:20.546875,-69.32
2019-08-05 20:11:20.562500,-98.58
2019-08-05 20:11:20.578125,-111.19
2019-08-05 20:11:20.593750,-112.68
2019-08-05 20:11:20.609375,-108.88
2019-08-05 20:11:20.625000,-103.58
2019-08-05 20:11:20.640625,-97.78
2019-08-05 20:11:20.656250,-90.87
2019-08-05 20:11:20.671875,-82.6
2019-08-05 20:11:20.687500,-73.82
2019-08-05 20:11:20.703125,-66.27
2019-08-05 20:11:20.718750,-61.41
2019-08-05 20:11:20.734375,-59.41
2019-08-05 20:11:20.750000,-59.13
2019-08-05 20:11:20.765625,-58.73
2019-08-05 20:11:20.781250,-56.51
2019-08-05 20:11:20.796875,-51.92
2019-08-05 20:11:20.812500,-45.61
2019-08-05 20:11:20.828125,-39.11
2019-08-05 20:11:20.843750,-33.97
2019-08-05 20:11:20.859375,-31.14
2019-08-05 20:11:20.875000,-30.47
2019-08-05 20:11:20.890625,-30.93
2019-08-05 20:11:20.906250,-31.14
2019-08-05 20:11:20.921875,-29.99
2019-08-05 20:11:20.937500,-27.13
2019-08-05 20:11:20.953125,-23.03
2019-08-05 20:11:20.968750,-18.69
2019-08-05 20:11:20.984375,-15.09
2019-08-05 20:11:21.000000,-12.84
2019-08-05 20:11:21.015625,-11.84
2019-08-05 20:11:21.031250,-11.49
2019-08-05 20:11:21.046875,-10.99
2019-08-05 20:11:21.062500,-9.73
2019-08-05 20:11:21.078125,-7.59
2019-08-05 20:11:21.093750,-4.79
2019-08-05 20:11:21.109375,-1.85
2019-08-05 20:11:21.125000,0.78
2019-08-05 20:11:21.140625,2.87
2019-08-05 20:11:21.156250,4.63
2019-08-05 20:11:21.171875,6.54
2019-08-05 20:11:21.187500,9.24
2019-08-05 20:11:21.203125,13.21
2019-08-05 20:11:21.218750,18.61
2019-08-05 20:11:21.234375,25.38
2019-08-05 20:11:21.250000,33.18
2019-08-05 20:11:21.265625,41.56
2019-08-05 20:11:21.281250,49.77
2019-08-05 20:11:21.296875,57.13
2019-08-05 20:11:21.312500,63.01
2019-08-05 20:11:21.328125,67.09
2019-08-05 20:11:21.343750,68.99
2019-08-05 20:11:21.359375,68.52
2019-08-05 20:11:21.375000,65.79
2019-08-05 20:11:21.390625,61.1
2019-08-05 20:11:21.406250,55.1
2019-08-05 20:11:21.421875,48.34
2019-08-05 20:11:21.437500,41.23
2019-08-05 20:11:21.453125,34.09
2019-08-05 20:11:21.468750,26.98
2019-08-05 20:11:21.484375,19.89
2019-08-05 20:11:21.500000,12.66
2019-08-05 20:11:21.515625,5.05
2019-08-05 20:11:21.531250,-3.02
2019-08-05 20:11:21.546875,-11.47
2019-08-05 20:11:21.562500,-19.9
2019-08-05 20:11:21.578125,-27.91
2019-08-05 20:11:21.593750,-35.06
2019-08-05 20:11:21.609375,-40.99
2019-08-05 20:11:21.625000,-45.42
2019-08-05 20:11:21.640625,-48.35
2019-08-05 20:11:21.656250,-50.32
2019-08-05 20:11:21.671875,-51.78
2019-08-05 20:11:21.687500,-53.54
2019-08-05 20:11:21.703125,-56.3
2019-08-05 20:11:21.718750,-60.96
2019-08-05 20:11:21.734375,-68.19
2019-08-05 20:11:21.750000,-78.25
2019-08-05 20:11:21.765625,-90.57
2019-08-05 20:11:21.781250,-104.19
2019-08-05 20:11:21.796875,-118.0
2019-08-05 20:11:21.812500,-129.99
2019-08-05 20:11:21.828125,-138.17
2019-08-05 20:11:21.843750,-140.59
2019-08-05 20:11:21.859375,-136.18
2019-08-05 20:11:21.875000,-124.34
2019-08-05 20:11:21.890625,-105.4
2019-08-05 20:11:21.906250,-80.3
2019-08-05 20:11:21.921875,-48.86
2019-08-05 20:11:21.937500,-15.45
2019-08-05 20:11:21.953125,16.62
2019-08-05 20:11:21.968750,43.76
2019-08-05 20:11:21.984375,64.91
2019-08-05 20:11:22.000000,78.66
2019-08-05 20:11:22.015625,84.5
2019-08-05 20:11:22.031250,82.61
2019-08-05 20:11:22.046875,73.9
2019-08-05 20:11:22.062500,59.78
2019-08-05 20:11:22.078125,41.98
2019-08-05 20:11:22.093750,23.07
2019-08-05 20:11:22.109375,5.48
2019-08-05 20:11:22.125000,-8.7
2019-08-05 20:11:22.140625,-18.52
2019-08-05 20:11:22.156250,-23.48
2019-08-05 20:11:22.171875,-23.84
2019-08-05 20:11:22.187500,-20.67
2019-08-05 20:11:22.203125,-15.83
2019-08-05 20:11:22.218750,-11.38
2019-08-05 20:11:22.234375,-8.68
2019-08-05 20:11:22.250000,-8.61
2019-08-05 20:11:22.265625,-9.49
2019-08-05 20:11:22.281250,-11.49
2019-08-05 20:11:22.296875,-13.77
2019-08-05 20:11:22.312500,-15.07
2019-08-05 20:11:22.328125,-14.56
2019-08-05 20:11:22.343750,-11.92
2019-08-05 20:11:22.359375,-7.44
2019-08-05 20:11:22.375000,-1.49
2019-08-05 20:11:22.390625,5.52
2019-08-05 20:11:22.406250,13.59
2019-08-05 20:11:22.421875,22.43
2019-08-05 20:11:22.437500,32.47
2019-08-05 20:11:22.453125,44.1
2019-08-05 20:11:22.468750,57.06
2019-08-05 20:11:22.484375,70.46
2019-08-05 20:11:22.500000,83.01
2019-08-05 20:11:22.515625,93.67
2019-08-05 20:11:22.531250,101.77
2019-08-05 20:11:22.546875,108.03
2019-08-05 20:11:22.562500,112.0
2019-08-05 20:11:22.578125,113.61
2019-08-05 20:11:22.593750,112.54
2019-08-05 20:11:22.609375,107.9
2019-08-05 20:11:22.625000,98.31
2019-08-05 20:11:22.640625,82.58
2019-08-05 20:11:22.656250,60.24
2019-08-05 20:11:22.671875,31.14
2019-08-05 20:11:22.687500,-2.74
2019-08-05 20:11:22.703125,-39.4
2019-08-05 20:11:22.718750,-75.41
2019-08-05 20:11:22.734375,-105.74
2019-08-05 20:11:22.750000,-124.52
2019-08-05 20:11:22.765625,-126.8
2019-08-05 20:11:22.781250,-110.97
2019-08-05 20:11:22.796875,-80.27
2019-08-05 20:11:22.812500,-42.18
2019-08-05 20:11:22.828125,-6.01
2019-08-05 20:11:22.843750,20.58
2019-08-05 20:11:22.859375,34.77
2019-08-05 20:11:22.875000,38.83
2019-08-05 20:11:22.890625,37.84
2019-08-05 20:11:22.906250,36.76
2019-08-05 20:11:22.921875,37.73
2019-08-05 20:11:22.937500,40.09
2019-08-05 20:11:22.953125,41.86
2019-08-05 20:11:22.968750,41.64
2019-08-05 20:11:22.984375,39.31
2019-08-05 20:11:23.000000,36.42
2019-08-05 20:11:23.015625,34.79
2019-08-05 20:11:23.031250,35.24
2019-08-05 20:11:23.046875,37.57
2019-08-05 20:11:23.062500,40.82
2019-08-05 20:11:23.078125,44.43
2019-08-05 20:11:23.093750,48.65
2019-08-05 20:11:23.109375,53.63
2019-08-05 20:11:23.125000,58.19
2019-08-05 20:11:23.140625,59.5
2019-08-05 20:11:23.156250,54.01
2019-08-05 20:11:23.171875,39.31
2019-08-05 20:11:23.187500,16.02
2019-08-05 20:11:23.203125,-11.89
2019-08-05 20:11:23.218750,-38.32
2019-08-05 20:11:23.234375,-57.79
2019-08-05 20:11:23.250000,-67.79
2019-08-05 20:11:23.265625,-69.48
2019-08-05 20:11:23.281250,-66.62
2019-08-05 20:11:23.296875,-63.19
2019-08-05 20:11:23.312500,-61.68
2019-08-05 20:11:23.328125,-62.63
2019-08-05 20:11:23.343750,-65.31
2019-08-05 20:11:23.359375,-68.68
2019-08-05 20:11:23.375000,-72.57
2019-08-05 20:11:23.390625,-76.82
2019-08-05 20:11:23.406250,-81.21
2019-08-05 20:11:23.421875,-85.67
2019-08-05 20:11:23.437500,-89.96
2019-08-05 20:11:23.453125,-93.98
2019-08-05 20:11:23.468750,-97.78
2019-08-05 20:11:23.484375,-101.87
2019-08-05 20:11:23.500000,-106.63
2019-08-05 20:11:23.515625,-112.38
2019-08-05 20:11:23.531250,-119.65
2019-08-05 20:11:23.546875,-128.27
2019-08-05 20:11:23.562500,-138.36
2019-08-05 20:11:23.578125,-149.67
2019-08-05 20:11:23.593750,-161.64
2019-08-05 20:11:23.609375,-174.03
2019-08-05 20:11:23.625000,-185.93
2019-08-05 20:11:23.640625,-196.47
2019-08-05 20:11:23.656250,-204.61
2019-08-05 20:11:23.671875,-208.29
2019-08-05 20:11:23.687500,-203.94
2019-08-05 20:11:23.703125,-187.22
2019-08-05 20:11:23.718750,-154.3
2019-08-05 20:11:23.734375,-104.44
2019-08-05 20:11:23.750000,-40.67
2019-08-05 20:11:23.765625,27.7
2019-08-05 20:11:23.781250,90.51
2019-08-05 20:11:23.796875,139.81
2019-08-05 20:11:23.812500,172.22
2019-08-05 20:11:23.828125,189.2
2019-08-05 20:11:23.843750,195.05
2019-08-05 20:11:23.859375,194.72
2019-08-05 20:11:23.875000,191.56
2019-08-05 20:11:23.890625,187.4
2019-08-05 20:11:23.906250,182.39
2019-08-05 20:11:23.921875,177.17
2019-08-05 20:11:23.937500,173.12
2019-08-05 20:11:23.953125,171.64
2019-08-05 20:11:23.968750,173.65
2019-08-05 20:11:23.984375,177.39
2019-08-05 20:11:24.000000,180.17
2019-08-05 20:11:24.015625,178.95
2019-08-05 20:11:24.031250,170.79
2019-08-05 20:11:24.046875,154.33
2019-08-05 20:11:24.062500,129.91
2019-08-05 20:11:24.078125,98.98
2019-08-05 20:11:24.093750,63.7
2019-08-05 20:11:24.109375,26.44
2019-08-05 20:11:24.125000,-10.89
2019-08-05 20:11:24.140625,-46.2
2019-08-05 20:11:24.156250,-77.39
2019-08-05 20:11:24.171875,-102.32
2019-08-05 20:11:24.187500,-119.07
2019-08-05 20:11:24.203125,-125.83
2019-08-05 20:11:24.218750,-121.75
2019-08-05 20:11:24.234375,-107.22
2019-08-05 20:11:24.250000,-83.88
2019-08-05 20:11:24.265625,-54.88
2019-08-05 20:11:24.281250,-23.62
2019-08-05 20:11:24.296875,6.97
2019-08-05 20:11:24.312500,34.82
2019-08-05 20:11:24.328125,58.79
2019-08-05 20:11:24.343750,78.93
2019-08-05 20:11:24.359375,95.77
2019-08-05 20:11:24.375000,109.92
2019-08-05 20:11:24.390625,122.86
2019-08-05 20:11:24.406250,133.49
2019-08-05 20:11:24.421875,140.9
2019-08-05 20:11:24.437500,144.19
2019-08-05 20:11:24.453125,142.49
2019-08-05 20:11:24.468750,135.24
2019-08-05 20:11:24.484375,122.45
2019-08-05 20:11:24.500000,104.55
2019-08-05 20:11:24.515625,81.25
2019-08-05 20:11:24.531250,54.99
2019-08-05 20:11:24.546875,27.45
2019-08-05 20:11:24.562500,0.36
2019-08-05 20:11:24.578125,-24.75
2019-08-05 20:11:24.593750,-46.79
2019-08-05 20:11:24.609375,-65.2
2019-08-05 20:11:24.625000,-79.92
2019-08-05 20:11:24.640625,-91.5
2019-08-05 20:11:24.656250,-100.8
2019-08-05 20:11:24.671875,-108.62
2019-08-05 20:11:24.687500,-116.08
2019-08-05 20:11:24.703125,-123.84
2019-08-05 20:11:24.718750,-131.86
2019-08-05 20:11:24.734375,-139.65
2019-08-05 20:11:24.750000,-146.48
2019-08-05 20:11:24.765625,-150.79
2019-08-05 20:11:24.781250,-150.99
2019-08-05 20:11:24.796875,-145.63
2019-08-05 20:11:24.812500,-133.37
2019-08-05 20:11:24.828125,-113.86
2019-08-05 20:11:24.843750,-87.52
2019-08-05 20:11:24.859375,-55.45
2019-08-05 20:11:24.875000,-19.68
2019-08-05 20:11:24.890625,17.14
2019-08-05 20:11:24.906250,52.03
2019-08-05 20:11:24.921875,82.12
2019-08-05 20:11:24.937500,104.84
2019-08-05 20:11:24.953125,118.43
2019-08-05 20:11:24.968750,121.89
2019-08-05 20:11:24.984375,115.16
2019-08-05 20:11:25.000000,99.37
2019-08-05 20:11:25.015625,76.31
2019-08-05 20:11:25.031250,48.21
2019-08-05 20:11:25.046875,17.65
2019-08-05 20:11:25.062500,-12.6
2019-08-05 20:11:25.078125,-39.96
2019-08-05 20:11:25.093750,-62.14
2019-08-05 20:11:25.109375,-77.41
2019-08-05 20:11:25.125000,-84.8
2019-08-05 20:11:25.140625,-83.71
2019-08-05 20:11:25.156250,-74.55
2019-08-05 20:11:25.171875,-58.63
2019-08-05 20:11:25.187500,-37.75
2019-08-05 20:11:25.203125,-14.13
2019-08-05 20:11:25.218750,9.93
2019-08-05 20:11:25.234375,32.24
2019-08-05 20:11:25.250000,50.76
2019-08-05 20:11:25.265625,63.71
2019-08-05 20:11:25.281250,70.16
2019-08-05 20:11:25.296875,69.46
2019-08-05 20:11:25.312500,61.42
2019-08-05 20:11:25.328125,46.71
2019-08-05 20:11:25.343750,26.78
2019-08-05 20:11:25.359375,4.01
2019-08-05 20:11:25.375000,-18.6
2019-08-05 20:11:25.390625,-37.92
2019-08-05 20:11:25.406250,-51.49
2019-08-05 20:11:25.421875,-57.27
2019-08-05 20:11:25.437500,-54.78
2019-08-05 20:11:25.453125,-44.96
2019-08-05 20:11:25.468750,-29.54
2019-08-05 20:11:25.484375,-10.89
2019-08-05 20:11:25.500000,8.95
2019-08-05 20:11:25.515625,28.38
2019-08-05 20:11:25.531250,46.42
2019-08-05 20:11:25.546875,62.55
2019-08-05 20:11:25.562500,77.58
2019-08-05 20:11:25.578125,92.5
2019-08-05 20:11:25.593750,108.18
2019-08-05 20:11:25.609375,125.05
2019-08-05 20:11:25.625000,142.4
2019-08-05 20:11:25.640625,158.77
2019-08-05 20:11:25.656250,172.45
2019-08-05 20:11:25.671875,182.56
2019-08-05 20:11:25.687500,185.13
2019-08-05 20:11:25.703125,180.43
2019-08-05 20:11:25.718750,171.02
2019-08-05 20:11:25.734375,160.5
2019-08-05 20:11:25.750000,152.0
2019-08-05 20:11:25.765625,146.91
2019-08-05 20:11:25.781250,144.39
2019-08-05 20:11:25.796875,141.84
2019-08-05 20:11:25.812500,135.83
2019-08-05 20:11:25.828125,123.17
2019-08-05 20:11:25.843750,102.21
2019-08-05 20:11:25.859375,72.33
2019-08-05 20:11:25.875000,34.08
2019-08-05 20:11:25.890625,-10.76
2019-08-05 20:11:25.906250,-59.35
2019-08-05 20:11:25.921875,-107.7
2019-08-05 20:11:25.937500,-151.15
2019-08-05 20:11:25.953125,-185.27
2019-08-05 20:11:25.968750,-206.87
2019-08-05 20:11:25.984375,-214.6
2019-08-05 20:11:26.000000,-209.85
2019-08-05 20:11:26.015625,-196.24
2019-08-05 20:11:26.031250,-178.18
2019-08-05 20:11:26.046875,-159.45
2019-08-05 20:11:26.062500,-142.31
2019-08-05 20:11:26.078125,-127.38
2019-08-05 20:11:26.093750,-114.33
2019-08-05 20:11:26.109375,-102.61
2019-08-05 20:11:26.125000,-91.68
2019-08-05 20:11:26.140625,-81.48
2019-08-05 20:11:26.156250,-72.27
2019-08-05 20:11:26.171875,-64.72
2019-08-05 20:11:26.187500,-59.39
2019-08-05 20:11:26.203125,-56.58
2019-08-05 20:11:26.218750,-55.8
2019-08-05 20:11:26.234375,-55.84
2019-08-05 20:11:26.250000,-55.08
2019-08-05 20:11:26.265625,-52.14
2019-08-05 20:11:26.281250,-47.09
2019-08-05 20:11:26.296875,-41.6
2019-08-05 20:11:26.312500,-38.07
2019-08-05 20:11:26.328125,-37.69
2019-08-05 20:11:26.343750,-39.22
2019-08-05 20:11:26.359375,-38.78
2019-08-05 20:11:26.375000,-31.35
2019-08-05 20:11:26.390625,-12.98
2019-08-05 20:11:26.406250,17.22
2019-08-05 20:11:26.421875,56.42
2019-08-05 20:11:26.437500,98.85
2019-08-05 20:11:26.453125,137.75
2019-08-05 20:11:26.468750,167.39
2019-08-05 20:11:26.484375,184.4
2019-08-05 20:11:26.500000,188.07
2019-08-05 20:11:26.515625,179.85
2019-08-05 20:11:26.531250,162.7
2019-08-05 20:11:26.546875,140.4
2019-08-05 20:11:26.562500,116.94
2019-08-05 20:11:26.578125,95.87
2019-08-05 20:11:26.593750,79.66
2019-08-05 20:11:26.609375,69.12
2019-08-05 20:11:26.625000,63.2
2019-08-05 20:11:26.640625,59.54
2019-08-05 20:11:26.656250,55.54
2019-08-05 20:11:26.671875,49.37
2019-08-05 20:11:26.687500,40.74
2019-08-05 20:11:26.703125,30.72
2019-08-05 20:11:26.718750,21.05
2019-08-05 20:11:26.734375,13.27
2019-08-05 20:11:26.750000,8.21
2019-08-05 20:11:26.765625,5.71
2019-08-05 20:11:26.781250,4.69
2019-08-05 20:11:26.796875,3.39
2019-08-05 20:11:26.812500,-0.21
2019-08-05 20:11:26.828125,-7.81
2019-08-05 20:11:26.843750,-20.0
2019-08-05 20:11:26.859375,-35.71
2019-08-05 20:11:26.875000,-52.27
2019-08-05 20:11:26.890625,-66.2
2019-08-05 20:11:26.906250,-74.72
2019-08-05 20:11:26.921875,-76.83
2019-08-05 20:11:26.937500,-73.86
2019-08-05 20:11:26.953125,-68.8
2019-08-05 20:11:26.968750,-65.02
2019-08-05 20:11:26.984375,-64.8
2019-08-05 20:11:27.000000,-68.71
2019-08-05 20:11:27.015625,-75.62
2019-08-05 20:11:27.031250,-83.44
2019-08-05 20:11:27.046875,-89.78
2019-08-05 20:11:27.062500,-92.5
2019-08-05 20:11:27.078125,-89.84
2019-08-05 20:11:27.093750,-80.63
2019-08-05 20:11:27.109375,-64.49
2019-08-05 20:11:27.125000,-42.23
2019-08-05 20:11:27.140625,-16.19
2019-08-05 20:11:27.156250,10.02
2019-08-05 20:11:27.171875,32.17
2019-08-05 20:11:27.187500,46.77
2019-08-05 20:11:27.203125,52.17
2019-08-05 20:11:27.218750,49.21
2019-08-05 20:11:27.234375,40.73
2019-08-05 20:11:27.250000,30.73
2019-08-05 20:11:27.265625,23.04
2019-08-05 20:11:27.281250,20.28
2019-08-05 20:11:27.296875,23.31
2019-08-05 20:11:27.312500,31.22
2019-08-05 20:11:27.328125,42.05
2019-08-05 20:11:27.343750,53.74
2019-08-05 20:11:27.359375,65.13
2019-08-05 20:11:27.375000,76.32
2019-08-05 20:11:27.390625,88.45
2019-08-05 20:11:27.406250,102.64
2019-08-05 20:11:27.421875,119.02
2019-08-05 20:11:27.437500,136.36
2019-08-05 20:11:27.453125,152.84
2019-08-05 20:11:27.468750,167.17
2019-08-05 20:11:27.484375,179.37
2019-08-05 20:11:27.500000,190.29
2019-08-05 20:11:27.515625,200.21
2019-08-05 20:11:27.531250,207.54
2019-08-05 20:11:27.546875,209.04
2019-08-05 20:11:27.562500,201.27
2019-08-05 20:11:27.578125,182.88
2019-08-05 20:11:27.593750,155.98
2019-08-05 20:11:27.609375,125.64
2019-08-05 20:11:27.625000,97.77
2019-08-05 20:11:27.640625,76.57
2019-08-05 20:11:27.656250,63.04
2019-08-05 20:11:27.671875,55.34
2019-08-05 20:11:27.687500,50.35
2019-08-05 20:11:27.703125,45.39
2019-08-05 20:11:27.718750,39.27
2019-08-05 20:11:27.734375,31.59
2019-08-05 20:11:27.750000,22.63
2019-08-05 20:11:27.765625,12.79
2019-08-05 20:11:27.781250,2.47
2019-08-05 20:11:27.796875,-7.88
2019-08-05 20:11:27.812500,-17.68
2019-08-05 20:11:27.828125,-26.08
2019-08-05 20:11:27.843750,-32.14
2019-08-05 20:11:27.859375,-35.17
2019-08-05 20:11:27.875000,-35.77
2019-08-05 20:11:27.890625,-35.33
2019-08-05 20:11:27.906250,-35.5
2019-08-05 20:11:27.921875,-37.68
2019-08-05 20:11:27.937500,-42.71
2019-08-05 20:11:27.953125,-50.95
2019-08-05 20:11:27.968750,-62.56
2019-08-05 20:11:27.984375,-77.73
2019-08-05 20:11:28.000000,-96.25
2019-08-05 20:11:28.015625,-118.16
2019-08-05 20:11:28.031250,-141.63
2019-08-05 20:11:28.046875,-162.5
2019-08-05 20:11:28.062500,-175.08
2019-08-05 20:11:28.078125,-174.27
2019-08-05 20:11:28.093750,-157.67
2019-08-05 20:11:28.109375,-126.19
2019-08-05 20:11:28.125000,-83.28
2019-08-05 20:11:28.140625,-32.82
2019-08-05 20:11:28.156250,19.02
2019-08-05 20:11:28.171875,68.08
2019-08-05 20:11:28.187500,113.01
2019-08-05 20:11:28.203125,154.55
2019-08-05 20:11:28.218750,193.29
2019-08-05 20:11:28.234375,228.35
2019-08-05 20:11:28.250000,257.82
2019-08-05 20:11:28.265625,280.22
2019-08-05 20:11:28.281250,295.62
2019-08-05 20:11:28.296875,298.18
2019-08-05 20:11:28.312500,282.31
2019-08-05 20:11:28.328125,244.45
2019-08-05 20:11:28.343750,184.32
2019-08-05 20:11:28.359375,103.96
2019-08-05 20:11:28.375000,6.78
2019-08-05 20:11:28.390625,-102.04
2019-08-05 20:11:28.406250,-214.77
2019-08-05 20:11:28.421875,-321.36
2019-08-05 20:11:28.437500,-422.42
2019-08-05 20:11:28.453125,-518.95
2019-08-05 20:11:28.468750,-609.31
2019-08-05 20:11:28.484375,-687.95
2019-08-05 20:11:28.500000,-748.67
2019-08-05 20:11:28.515625,-788.87
2019-08-05 20:11:28.531250,-810.62
2019-08-05 20:11:28.546875,-819.12
2019-08-05 20:11:28.562500,-820.23
2019-08-05 20:11:28.578125,-833.67
2019-08-05 20:11:28.593750,-875.44
2019-08-05 20:11:28.609375,-951.3
2019-08-05 20:11:28.625000,-1054.67
2019-08-05 20:11:28.640625,-1171.68
2019-08-05 20:11:28.656250,-1288.43
2019-08-05 20:11:28.671875,-1394.35
2019-08-05 20:11:28.687500,-1481.92
2019-08-05 20:11:28.703125,-1469.24
2019-08-05 20:11:28.718750,-1307.97
2019-08-05 20:11:28.734375,-1002.47
2019-08-05 20:11:28.750000,-614.84
2019-08-05 20:11:28.765625,-225.26
2019-08-05 20:11:28.781250,110.45
2019-08-05 20:11:28.796875,370.88
2019-08-05 20:11:28.812500,557.5
2019-08-05 20:11:28.828125,675.43
2019-08-05 20:11:28.843750,749.79
2019-08-05 20:11:28.859375,786.99
2019-08-05 20:11:28.875000,791.55
2019-08-05 20:11:28.890625,772.7
2019-08-05 20:11:28.906250,745.64
2019-08-05 20:11:28.921875,725.88
2019-08-05 20:11:28.937500,722.9
2019-08-05 20:11:28.953125,736.33
2019-08-05 20:11:28.968750,760.55
2019-08-05 20:11:28.984375,783.74
2019-08-05 20:11:29.000000,784.89
2019-08-05 20:11:29.015625,752.3
2019-08-05 20:11:29.031250,688.04
2019-08-05 20:11:29.046875,604.9
2019-08-05 20:11:29.062500,517.66
2019-08-05 20:11:29.078125,436.5
2019-08-05 20:11:29.093750,366.04
2019-08-05 20:11:29.109375,308.15
2019-08-05 20:11:29.125000,265.22
2019-08-05 20:11:29.140625,230.82
2019-08-05 20:11:29.156250,200.61
2019-08-05 20:11:29.171875,173.62
2019-08-05 20:11:29.187500,151.81
2019-08-05 20:11:29.203125,137.19
2019-08-05 20:11:29.218750,129.2
2019-08-05 20:11:29.234375,124.0
2019-08-05 20:11:29.250000,117.25
2019-08-05 20:11:29.265625,104.97
2019-08-05 20:11:29.281250,84.18
2019-08-05 20:11:29.296875,58.36
2019-08-05 20:11:29.312500,35.05
2019-08-05 20:11:29.328125,21.38
2019-08-05 20:11:29.343750,20.23
2019-08-05 20:11:29.359375,29.49
2019-08-05 20:11:29.375000,43.87
2019-08-05 20:11:29.390625,58.26
2019-08-05 20:11:29.406250,69.7
2019-08-05 20:11:29.421875,75.86
2019-08-05 20:11:29.437500,75.71
2019-08-05 20:11:29.453125,69.8
2019-08-05 20:11:29.468750,58.22
2019-08-05 20:11:29.484375,42.26
2019-08-05 20:11:29.500000,24.71
2019-08-05 20:11:29.515625,8.8
2019-08-05 20:11:29.531250,-2.92
2019-08-05 20:11:29.546875,-9.04
2019-08-05 20:11:29.562500,-10.28
2019-08-05 20:11:29.578125,-9.2
2019-08-05 20:11:29.593750,-9.42
2019-08-05 20:11:29.609375,-14.74
2019-08-05 20:11:29.625000,-27.4
2019-08-05 20:11:29.640625,-47.36
2019-08-05 20:11:29.656250,-72.52
2019-08-05 20:11:29.671875,-98.2
2019-08-05 20:11:29.687500,-116.28
2019-08-05 20:11:29.703125,-119.46
2019-08-05 20:11:29.718750,-106.01
2019-08-05 20:11:29.734375,-81.58
2019-08-05 20:11:29.750000,-56.33
2019-08-05 20:11:29.765625,-38.9
2019-08-05 20:11:29.781250,-32.76
2019-08-05 20:11:29.796875,-33.91
2019-08-05 20:11:29.812500,-36.48
2019-08-05 20:11:29.828125,-35.5
2019-08-05 20:11:29.843750,-28.82
2019-08-05 20:11:29.859375,-19.9
2019-08-05 20:11:29.875000,-14.45
2019-08-05 20:11:29.890625,-17.62
2019-08-05 20:11:29.906250,-31.84
2019-08-05 20:11:29.921875,-55.51
2019-08-05 20:11:29.937500,-83.31
2019-08-05 20:11:29.953125,-108.67
2019-08-05 20:11:29.968750,-126.62
2019-08-05 20:11:29.984375,-136.79
2019-08-05 20:11:30.000000,-142.82
2019-08-05 20:11:30.015625,-149.03
2019-08-05 20:11:30.031250,-156.35
2019-08-05 20:11:30.046875,-160.53
2019-08-05 20:11:30.062500,-153.65
2019-08-05 20:11:30.078125,-128.44
2019-08-05 20:11:30.093750,-82.42
2019-08-05 20:11:30.109375,-19.16
2019-08-05 20:11:30.125000,53.03
2019-08-05 20:11:30.140625,124.54
2019-08-05 20:11:30.156250,187.55
2019-08-05 20:11:30.171875,236.72
2019-08-05 20:11:30.187500,268.42
2019-08-05 20:11:30.203125,279.98
2019-08-05 20:11:30.218750,269.78
2019-08-05 20:11:30.234375,238.53
2019-08-05 20:11:30.250000,190.46
2019-08-05 20:11:30.265625,133.06
2019-08-05 20:11:30.281250,75.08
2019-08-05 20:11:30.296875,23.94
2019-08-05 20:11:30.312500,-16.69
2019-08-05 20:11:30.328125,-47.31
2019-08-05 20:11:30.343750,-71.81
2019-08-05 20:11:30.359375,-96.23
2019-08-05 20:11:30.375000,-126.75
2019-08-05 20:11:30.390625,-167.63
2019-08-05 20:11:30.406250,-219.4
2019-08-05 20:11:30.421875,-277.5
2019-08-05 20:11:30.437500,-332.95
2019-08-05 20:11:30.453125,-374.96
2019-08-05 20:11:30.468750,-394.94
2019-08-05 20:11:30.484375,-389.9
2019-08-05 20:11:30.500000,-363.52
2019-08-05 20:11:30.515625,-324.37
2019-08-05 20:11:30.531250,-282.13
2019-08-05 20:11:30.546875,-243.76
2019-08-05 20:11:30.562500,-211.33
2019-08-05 20:11:30.578125,-182.66
2019-08-05 20:11:30.593750,-153.65
2019-08-05 20:11:30.609375,-120.89
2019-08-05 20:11:30.625000,-83.23
2019-08-05 20:11:30.640625,-41.87
2019-08-05 20:11:30.656250,0.74
2019-08-05 20:11:30.671875,42.01
2019-08-05 20:11:30.687500,80.08
2019-08-05 20:11:30.703125,114.13
2019-08-05 20:11:30.718750,144.21
2019-08-05 20:11:30.734375,171.09
2019-08-05 20:11:30.750000,195.83
2019-08-05 20:11:30.765625,219.83
2019-08-05 20:11:30.781250,244.24
2019-08-05 20:11:30.796875,269.38
2019-08-05 20:11:30.812500,293.77
2019-08-05 20:11:30.828125,313.76
2019-08-05 20:11:30.843750,324.55
2019-08-05 20:11:30.859375,322.47
2019-08-05 20:11:30.875000,307.41
2019-08-05 20:11:30.890625,284.15
2019-08-05 20:11:30.906250,261.45
2019-08-05 20:11:30.921875,249.05
2019-08-05 20:11:30.937500,253.92
2019-08-05 20:11:30.953125,277.28
2019-08-05 20:11:30.968750,313.89
2019-08-05 20:11:30.984375,353.86
2019-08-05 20:11:31.000000,385.76
2019-08-05 20:11:31.015625,399.93
2019-08-05 20:11:31.031250,390.81
2019-08-05 20:11:31.046875,357.65
2019-08-05 20:11:31.062500,303.9
2019-08-05 20:11:31.078125,235.74
2019-08-05 20:11:31.093750,160.17
2019-08-05 20:11:31.109375,83.06
2019-08-05 20:11:31.125000,8.14
2019-08-05 20:11:31.140625,-62.83
2019-08-05 20:11:31.156250,-128.5
2019-08-05 20:11:31.171875,-186.08
2019-08-05 20:11:31.187500,-230.41
2019-08-05 20:11:31.203125,-255.21
2019-08-05 20:11:31.218750,-255.72
2019-08-05 20:11:31.234375,-231.01
2019-08-05 20:11:31.250000,-184.95
2019-08-05 20:11:31.265625,-124.71
2019-08-05 20:11:31.281250,-57.71
2019-08-05 20:11:31.296875,11.08
2019-08-05 20:11:31.312500,80.07
2019-08-05 20:11:31.328125,149.32
2019-08-05 20:11:31.343750,217.48
2019-08-05 20:11:31.359375,279.13
2019-08-05 20:11:31.375000,325.69
2019-08-05 20:11:31.390625,348.36
2019-08-05 20:11:31.406250,341.89
2019-08-05 20:11:31.421875,307.16
2019-08-05 20:11:31.437500,251.0
2019-08-05 20:11:31.453125,184.13
2019-08-05 20:11:31.468750,118.5
2019-08-05 20:11:31.484375,65.12
2019-08-05 20:11:31.500000,32.01
2019-08-05 20:11:31.515625,23.41
2019-08-05 20:11:31.531250,39.1
2019-08-05 20:11:31.546875,74.26
2019-08-05 20:11:31.562500,120.31
2019-08-05 20:11:31.578125,167.08
2019-08-05 20:11:31.593750,205.69
2019-08-05 20:11:31.609375,230.61
2019-08-05 20:11:31.625000,240.05
2019-08-05 20:11:31.640625,233.54
2019-08-05 20:11:31.656250,211.88
2019-08-05 20:11:31.671875,177.07
2019-08-05 20:11:31.687500,132.99
2019-08-05 20:11:31.703125,85.32
2019-08-05 20:11:31.718750,40.73
2019-08-05 20:11:31.734375,5.48
2019-08-05 20:11:31.750000,-16.49
2019-08-05 20:11:31.765625,-24.54
2019-08-05 20:11:31.781250,-23.6
2019-08-05 20:11:31.796875,-19.61
2019-08-05 20:11:31.812500,-16.74
2019-08-05 20:11:31.828125,-15.96
2019-08-05 20:11:31.843750,-16.28
2019-08-05 20:11:31.859375,-17.04
2019-08-05 20:11:31.875000,-18.73
2019-08-05 20:11:31.890625,-23.06
2019-08-05 20:11:31.906250,-32.36
2019-08-05 20:11:31.921875,-52.29
2019-08-05 20:11:31.937500,-86.54
2019-08-05 20:11:31.953125,-134.51
2019-08-05 20:11:31.968750,-190.99
2019-08-05 20:11:31.984375,-248.65
2019-08-05 20:11:32.000000,-301.36
2019-08-05 20:11:32.015625,-345.51
2019-08-05 20:11:32.031250,-379.92
2019-08-05 20:11:32.046875,-405.02
2019-08-05 20:11:32.062500,-426.88
2019-08-05 20:11:32.078125,-450.81
2019-08-05 20:11:32.093750,-478.79
2019-08-05 20:11:32.109375,-509.23
2019-08-05 20:11:32.125000,-539.66
2019-08-05 20:11:32.140625,-569.69
2019-08-05 20:11:32.156250,-601.47
2019-08-05 20:11:32.171875,-638.26
2019-08-05 20:11:32.187500,-651.82
2019-08-05 20:11:32.203125,-623.8
2019-08-05 20:11:32.218750,-554.76
2019-08-05 20:11:32.234375,-464.81
2019-08-05 20:11:32.250000,-377.03
2019-08-05 20:11:32.265625,-302.63
2019-08-05 20:11:32.281250,-239.64
2019-08-05 20:11:32.296875,-179.67
2019-08-05 20:11:32.312500,-114.76
2019-08-05 20:11:32.328125,-42.02
2019-08-05 20:11:32.343750,30.33
2019-08-05 20:11:32.359375,90.56
2019-08-05 20:11:32.375000,130.0
2019-08-05 20:11:32.390625,147.21
2019-08-05 20:11:32.406250,147.13
2019-08-05 20:11:32.421875,137.41
2019-08-05 20:11:32.437500,124.6
2019-08-05 20:11:32.453125,112.42
2019-08-05 20:11:32.468750,101.61
2019-08-05 20:11:32.484375,87.92
2019-08-05 20:11:32.500000,68.13
2019-08-05 20:11:32.515625,42.96
2019-08-05 20:11:32.531250,17.24
2019-08-05 20:11:32.546875,-4.05
2019-08-05 20:11:32.562500,-16.84
2019-08-05 20:11:32.578125,-20.35
2019-08-05 20:11:32.593750,-16.24
2019-08-05 20:11:32.609375,-7.41
2019-08-05 20:11:32.625000,1.17
2019-08-05 20:11:32.640625,5.57
2019-08-05 20:11:32.656250,3.99
2019-08-05 20:11:32.671875,-3.19
2019-08-05 20:11:32.687500,-15.24
2019-08-05 20:11:32.703125,-32.06
2019-08-05 20:11:32.718750,-54.43
2019-08-05 20:11:32.734375,-83.07
2019-08-05 20:11:32.750000,-117.65
2019-08-05 20:11:32.765625,-157.06
2019-08-05 20:11:32.781250,-198.55
2019-08-05 20:11:32.796875,-237.99
2019-08-05 20:11:32.812500,-270.55
2019-08-05 20:11:32.828125,-291.92
2019-08-05 20:11:32.843750,-299.2
2019-08-05 20:11:32.859375,-291.19
2019-08-05 20:11:32.875000,-267.92
2019-08-05 20:11:32.890625,-230.1
2019-08-05 20:11:32.906250,-179.64
2019-08-05 20:11:32.921875,-120.03
2019-08-05 20:11:32.937500,-56.09
2019-08-05 20:11:32.953125,6.81
2019-08-05 20:11:32.968750,63.9
2019-08-05 20:11:32.984375,112.05
2019-08-05 20:11:33.000000,150.18
2019-08-05 20:11:33.015625,179.06
2019-08-05 20:11:33.031250,200.54
2019-08-05 20:11:33.046875,219.29
2019-08-05 20:11:33.062500,238.91
2019-08-05 20:11:33.078125,260.59
2019-08-05 20:11:33.093750,283.17
2019-08-05 20:11:33.109375,304.76
2019-08-05 20:11:33.125000,324.37
2019-08-05 20:11:33.140625,342.42
2019-08-05 20:11:33.156250,359.84
2019-08-05 20:11:33.171875,377.37
2019-08-05 20:11:33.187500,398.94
2019-08-05 20:11:33.203125,426.1
2019-08-05 20:11:33.218750,457.1
2019-08-05 20:11:33.234375,487.48
2019-08-05 20:11:33.250000,512.85
2019-08-05 20:11:33.265625,531.31
2019-08-05 20:11:33.281250,543.74
2019-08-05 20:11:33.296875,552.51
2019-08-05 20:11:33.312500,560.32
2019-08-05 20:11:33.328125,575.01
2019-08-05 20:11:33.343750,601.83
2019-08-05 20:11:33.359375,640.84
2019-08-05 20:11:33.375000,686.04
2019-08-05 20:11:33.390625,727.5
2019-08-05 20:11:33.406250,754.75
2019-08-05 20:11:33.421875,759.91
2019-08-05 20:11:33.437500,739.51
2019-08-05 20:11:33.453125,662.16
2019-08-05 20:11:33.468750,519.97
2019-08-05 20:11:33.484375,330.63
2019-08-05 20:11:33.500000,131.01
2019-08-05 20:11:33.515625,-43.58
2019-08-05 20:11:33.531250,-175.36
2019-08-05 20:11:33.546875,-264.68
2019-08-05 20:11:33.562500,-320.3
2019-08-05 20:11:33.578125,-351.57
2019-08-05 20:11:33.593750,-365.72
2019-08-05 20:11:33.609375,-362.27
2019-08-05 20:11:33.625000,-341.7
2019-08-05 20:11:33.640625,-308.12
2019-08-05 20:11:33.656250,-269.02
2019-08-05 20:11:33.671875,-231.85
2019-08-05 20:11:33.687500,-201.52
2019-08-05 20:11:33.703125,-178.07
2019-08-05 20:11:33.718750,-160.04
2019-08-05 20:11:33.734375,-147.01
2019-08-05 20:11:33.750000,-135.22
2019-08-05 20:11:33.765625,-123.13
2019-08-05 20:11:33.781250,-112.26
2019-08-05 20:11:33.796875,-106.38
2019-08-05 20:11:33.812500,-108.74
2019-08-05 20:11:33.828125,-120.72
2019-08-05 20:11:33.843750,-140.39
2019-08-05 20:11:33.859375,-164.01
2019-08-05 20:11:33.875000,-189.47
2019-08-05 20:11:33.890625,-213.18
2019-08-05 20:11:33.906250,-233.86
2019-08-05 20:11:33.921875,-253.26
2019-08-05 20:11:33.937500,-276.09
2019-08-05 20:11:33.953125,-301.76
2019-08-05 20:11:33.968750,-330.88
2019-08-05 20:11:33.984375,-363.05
2019-08-05 20:11:34.000000,-386.57
2019-08-05 20:11:34.015625,-393.97
2019-08-05 20:11:34.031250,-382.24
2019-08-05 20:11:34.046875,-355.07
2019-08-05 20:11:34.062500,-320.08
2019-08-05 20:11:34.078125,-284.54
2019-08-05 20:11:34.093750,-252.31
2019-08-05 20:11:34.109375,-224.51
2019-08-05 20:11:34.125000,-200.27
2019-08-05 20:11:34.140625,-179.0
2019-08-05 20:11:34.156250,-162.91
2019-08-05 20:11:34.171875,-153.48
2019-08-05 20:11:34.187500,-149.66
2019-08-05 20:11:34.203125,-146.72
2019-08-05 20:11:34.218750,-137.28
2019-08-05 20:11:34.234375,-114.47
2019-08-05 20:11:34.250000,-76.37
2019-08-05 20:11:34.265625,-26.61
2019-08-05 20:11:34.281250,26.81
2019-08-05 20:11:34.296875,73.86
2019-08-05 20:11:34.312500,107.73
2019-08-05 20:11:34.328125,125.99
2019-08-05 20:11:34.343750,129.1
2019-08-05 20:11:34.359375,117.63
2019-08-05 20:11:34.375000,91.01
2019-08-05 20:11:34.390625,49.03
2019-08-05 20:11:34.406250,-4.16
2019-08-05 20:11:34.421875,-58.49
2019-08-05 20:11:34.437500,-101.05
2019-08-05 20:11:34.453125,-120.83
2019-08-05 20:11:34.468750,-114.49
2019-08-05 20:11:34.484375,-88.33
2019-08-05 20:11:34.500000,-55.13
2019-08-05 20:11:34.515625,-28.1
2019-08-05 20:11:34.531250,-15.34
2019-08-05 20:11:34.546875,-16.96
2019-08-05 20:11:34.562500,-27.22
2019-08-05 20:11:34.578125,-39.81
2019-08-05 20:11:34.593750,-49.95
2019-08-05 20:11:34.609375,-56.06
2019-08-05 20:11:34.625000,-58.12
2019-08-05 20:11:34.640625,-55.72
2019-08-05 20:11:34.656250,-47.11
2019-08-05 20:11:34.671875,-30.03
2019-08-05 20:11:34.687500,-3.14
2019-08-05 20:11:34.703125,32.33
2019-08-05 20:11:34.718750,71.93
2019-08-05 20:11:34.734375,109.75
2019-08-05 20:11:34.750000,140.53
2019-08-05 20:11:34.765625,161.59
2019-08-05 20:11:34.781250,173.34
2019-08-05 20:11:34.796875,178.53
2019-08-05 20:11:34.812500,180.71
2019-08-05 20:11:34.828125,182.55
2019-08-05 20:11:34.843750,184.59
2019-08-05 20:11:34.859375,185.59
2019-08-05 20:11:34.875000,183.67
2019-08-05 20:11:34.890625,177.39
2019-08-05 20:11:34.906250,166.87
2019-08-05 20:11:34.921875,153.85
2019-08-05 20:11:34.937500,140.95
2019-08-05 20:11:34.953125,130.71
2019-08-05 20:11:34.968750,124.85
2019-08-05 20:11:34.984375,123.79
2019-08-05 20:11:35.000000,126.64
2019-08-05 20:11:35.015625,130.97
2019-08-05 20:11:35.031250,132.74
2019-08-05 20:11:35.046875,127.12
2019-08-05 20:11:35.062500,110.16
2019-08-05 20:11:35.078125,80.82
2019-08-05 20:11:35.093750,42.2
2019-08-05 20:11:35.109375,0.97
2019-08-05 20:11:35.125000,-35.14
2019-08-05 20:11:35.140625,-60.38
2019-08-05 20:11:35.156250,-73.18
2019-08-05 20:11:35.171875,-76.08
2019-08-05 20:11:35.187500,-73.72
2019-08-05 20:11:35.203125,-70.09
2019-08-05 20:11:35.218750,-66.82
2019-08-05 20:11:35.234375,-63.34
2019-08-05 20:11:35.250000,-58.39
2019-08-05 20:11:35.265625,-51.76
2019-08-05 20:11:35.281250,-44.75
2019-08-05 20:11:35.296875,-39.6
2019-08-05 20:11:35.312500,-37.89
2019-08-05 20:11:35.328125,-39.5
2019-08-05 20:11:35.343750,-42.73
2019-08-05 20:11:35.359375,-45.01
2019-08-05 20:11:35.375000,-44.15
2019-08-05 20:11:35.390625,-39.54
2019-08-05 20:11:35.406250,-32.3
2019-08-05 20:11:35.421875,-24.66
2019-08-05 20:11:35.437500,-18.92
2019-08-05 20:11:35.453125,-16.2
2019-08-05 20:11:35.468750,-15.97
2019-08-05 20:11:35.484375,-16.29
2019-08-05 20:11:35.500000,-14.56
2019-08-05 20:11:35.515625,-8.97
2019-08-05 20:11:35.531250,0.78
2019-08-05 20:11:35.546875,13.12
2019-08-05 20:11:35.562500,25.31
2019-08-05 20:11:35.578125,34.23
2019-08-05 20:11:35.593750,37.46
2019-08-05 20:11:35.609375,33.51
2019-08-05 20:11:35.625000,21.96
2019-08-05 20:11:35.640625,3.53
2019-08-05 20:11:35.656250,-19.57
2019-08-05 20:11:35.671875,-43.35
2019-08-05 20:11:35.687500,-62.58
2019-08-05 20:11:35.703125,-72.14
2019-08-05 20:11:35.718750,-69.64
2019-08-05 20:11:35.734375,-56.64
2019-08-05 20:11:35.750000,-38.42
2019-08-05 20:11:35.765625,-21.79
2019-08-05 20:11:35.781250,-12.16
2019-08-05 20:11:35.796875,-11.38
2019-08-05 20:11:35.812500,-17.53
2019-08-05 20:11:35.828125,-26.57
2019-08-05 20:11:35.843750,-34.93
2019-08-05 20:11:35.859375,-41.05
2019-08-05 20:11:35.875000,-45.56
2019-08-05 20:11:35.890625,-49.92
2019-08-05 20:11:35.906250,-54.78
2019-08-05 20:11:35.921875,-59.0
2019-08-05 20:11:35.937500,-60.19
2019-08-05 20:11:35.953125,-56.0
2019-08-05 20:11:35.968750,-45.22
2019-08-05 20:11:35.984375,-28.41
2019-08-05 20:11:36.000000,-7.54
2019-08-05 20:11:36.015625,14.44
2019-08-05 20:11:36.031250,34.97
2019-08-05 20:11:36.046875,52.54
2019-08-05 20:11:36.062500,66.81
2019-08-05 20:11:36.078125,78.51
2019-08-05 20:11:36.093750,88.62
2019-08-05 20:11:36.109375,97.6
2019-08-05 20:11:36.125000,105.33
2019-08-05 20:11:36.140625,111.53
2019-08-05 20:11:36.156250,116.06
2019-08-05 20:11:36.171875,119.15
2019-08-05 20:11:36.187500,120.74
2019-08-05 20:11:36.203125,119.61
2019-08-05 20:11:36.218750,113.24
2019-08-05 20:11:36.234375,98.86
2019-08-05 20:11:36.250000,75.29
2019-08-05 20:11:36.265625,44.11
2019-08-05 20:11:36.281250,11.87
2019-08-05 20:11:36.296875,-13.73
2019-08-05 20:11:36.312500,-26.69
2019-08-05 20:11:36.328125,-25.02
2019-08-05 20:11:36.343750,-11.29
2019-08-05 20:11:36.359375,9.11
2019-08-05 20:11:36.375000,30.59
2019-08-05 20:11:36.390625,49.37
2019-08-05 20:11:36.406250,63.94
2019-08-05 20:11:36.421875,73.8
2019-08-05 20:11:36.437500,78.15
2019-08-05 20:11:36.453125,75.91
2019-08-05 20:11:36.468750,65.85
2019-08-05 20:11:36.484375,47.77
2019-08-05 20:11:36.500000,23.08
2019-08-05 20:11:36.515625,-5.3
2019-08-05 20:11:36.531250,-33.82
2019-08-05 20:11:36.546875,-59.09
2019-08-05 20:11:36.562500,-78.93
2019-08-05 20:11:36.578125,-92.6
2019-08-05 20:11:36.593750,-100.24
2019-08-05 20:11:36.609375,-102.69
2019-08-05 20:11:36.625000,-100.61
2019-08-05 20:11:36.640625,-94.28
2019-08-05 20:11:36.656250,-83.7
2019-08-05 20:11:36.671875,-68.99
2019-08-05 20:11:36.687500,-50.71
2019-08-05 20:11:36.703125,-30.01
2019-08-05 20:11:36.718750,-8.58
2019-08-05 20:11:36.734375,11.82
2019-08-05 20:11:36.750000,29.28
2019-08-05 20:11:36.765625,42.74
2019-08-05 20:11:36.781250,51.98
2019-08-05 20:11:36.796875,57.51
2019-08-05 20:11:36.812500,60.15
2019-08-05 20:11:36.828125,60.78
2019-08-05 20:11:36.843750,60.05
2019-08-05 20:11:36.859375,58.27
2019-08-05 20:11:36.875000,55.53
2019-08-05 20:11:36.890625,51.12
2019-08-05 20:11:36.906250,44.64
2019-08-05 20:11:36.921875,35.97
2019-08-05 20:11:36.937500,25.39
2019-08-05 20:11:36.953125,13.54
2019-08-05 20:11:36.968750,1.45
2019-08-05 20:11:36.984375,-9.67
2019-08-05 20:11:37.000000,-18.69
2019-08-05 20:11:37.015625,-24.82
2019-08-05 20:11:37.031250,-28.75
2019-08-05 20:11:37.046875,-31.39
2019-08-05 20:11:37.062500,-33.83
2019-08-05 20:11:37.078125,-37.05
2019-08-05 20:11:37.093750,-41.65
2019-08-05 20:11:37.109375,-47.78
2019-08-05 20:11:37.125000,-55.28
2019-08-05 20:11:37.140625,-64.42
2019-08-05 20:11:37.156250,-70.48
2019-08-05 20:11:37.171875,-72.8
2019-08-05 20:11:37.187500,-72.28
2019-08-05 20:11:37.203125,-70.75
2019-08-05 20:11:37.218750,-70.28
2019-08-05 20:11:37.234375,-72.4
2019-08-05 20:11:37.250000,-77.78
2019-08-05 20:11:37.265625,-86.47
2019-08-05 20:11:37.281250,-98.14
2019-08-05 20:11:37.296875,-112.72
2019-08-05 20:11:37.312500,-131.45
2019-08-05 20:11:37.328125,-155.51
2019-08-05 20:11:37.343750,-185.83
2019-08-05 20:11:37.359375,-223.04
2019-08-05 20:11:37.375000,-267.33
2019-08-05 20:11:37.390625,-318.24
2019-08-05 20:11:37.406250,-373.87
2019-08-05 20:11:37.421875,-429.99
2019-08-05 20:11:37.437500,-479.72
2019-08-05 20:11:37.453125,-515.11
2019-08-05 20:11:37.468750,-528.72
2019-08-05 20:11:37.484375,-516.72
2019-08-05 20:11:37.500000,-481.02
2019-08-05 20:11:37.515625,-429.15
2019-08-05 20:11:37.531250,-371.68
2019-08-05 20:11:37.546875,-318.35
2019-08-05 20:11:37.562500,-274.95
2019-08-05 20:11:37.578125,-242.26
2019-08-05 20:11:37.593750,-217.8
2019-08-05 20:11:37.609375,-197.94
2019-08-05 20:11:37.625000,-179.98
2019-08-05 20:11:37.640625,-162.72
2019-08-05 20:11:37.656250,-145.81
2019-08-05 20:11:37.671875,-128.57
2019-08-05 20:11:37.687500,-109.44
2019-08-05 20:11:37.703125,-86.26
2019-08-05 20:11:37.718750,-57.36
2019-08-05 20:11:37.734375,-22.54
2019-08-05 20:11:37.750000,16.8
2019-08-05 20:11:37.765625,57.97
2019-08-05 20:11:37.781250,98.21
2019-08-05 20:11:37.796875,135.58
2019-08-05 20:11:37.812500,169.64
2019-08-05 20:11:37.828125,201.39
2019-08-05 20:11:37.843750,232.75
2019-08-05 20:11:37.859375,265.59
2019-08-05 20:11:37.875000,301.05
2019-08-05 20:11:37.890625,339.5
2019-08-05 20:11:37.906250,380.69
2019-08-05 20:11:37.921875,424.12
2019-08-05 20:11:37.937500,468.69
2019-08-05 20:11:37.953125,512.11
2019-08-05 20:11:37.968750,550.51
2019-08-05 20:11:37.984375,578.96
2019-08-05 20:11:38.000000,592.76
2019-08-05 20:11:38.015625,589.1
2019-08-05 20:11:38.031250,568.1
2019-08-05 20:11:38.046875,532.5
2019-08-05 20:11:38.062500,486.56
2019-08-05 20:11:38.078125,434.25
2019-08-05 20:11:38.093750,378.34
2019-08-05 20:11:38.109375,320.44
2019-08-05 20:11:38.125000,262.0
2019-08-05 20:11:38.140625,205.16
2019-08-05 20:11:38.156250,152.82
2019-08-05 20:11:38.171875,107.81
2019-08-05 20:11:38.187500,71.67
2019-08-05 20:11:38.203125,44.32
2019-08-05 20:11:38.218750,24.24
2019-08-05 20:11:38.234375,9.43
2019-08-05 20:11:38.250000,-1.75
2019-08-05 20:11:38.265625,-10.11
2019-08-05 20:11:38.281250,-15.75
2019-08-05 20:11:38.296875,-18.37
2019-08-05 20:11:38.312500,-17.6
2019-08-05 20:11:38.328125,-13.29
2019-08-05 20:11:38.343750,-5.23
2019-08-05 20:11:38.359375,6.43
2019-08-05 20:11:38.375000,20.68
2019-08-05 20:11:38.390625,35.45
2019-08-05 20:11:38.406250,48.11
2019-08-05 20:11:38.421875,56.33
2019-08-05 20:11:38.437500,58.96
2019-08-05 20:11:38.453125,56.52
2019-08-05 20:11:38.468750,50.98
2019-08-05 20:11:38.484375,45.88
2019-08-05 20:11:38.500000,44.5
2019-08-05 20:11:38.515625,48.49
2019-08-05 20:11:38.531250,57.08
2019-08-05 20:11:38.546875,67.65
2019-08-05 20:11:38.562500,76.88
2019-08-05 20:11:38.578125,81.79
2019-08-05 20:11:38.593750,80.39
2019-08-05 20:11:38.609375,72.35
2019-08-05 20:11:38.625000,60.55
2019-08-05 20:11:38.640625,49.19
2019-08-05 20:11:38.656250,41.68
2019-08-05 20:11:38.671875,38.68
2019-08-05 20:11:38.687500,38.01
2019-08-05 20:11:38.703125,35.82
2019-08-05 20:11:38.718750,28.37
2019-08-05 20:11:38.734375,13.19
2019-08-05 20:11:38.750000,-9.89
2019-08-05 20:11:38.765625,-36.74
2019-08-05 20:11:38.781250,-61.8
2019-08-05 20:11:38.796875,-81.01
2019-08-05 20:11:38.812500,-93.65
2019-08-05 20:11:38.828125,-100.89
2019-08-05 20:11:38.843750,-103.97
2019-08-05 20:11:38.859375,-103.32
2019-08-05 20:11:38.875000,-99.46
2019-08-05 20:11:38.890625,-93.93
2019-08-05 20:11:38.906250,-85.94
2019-08-05 20:11:38.921875,-73.74
2019-08-05 20:11:38.937500,-54.79
2019-08-05 20:11:38.953125,-26.51
2019-08-05 20:11:38.968750,14.03
2019-08-05 20:11:38.984375,69.11
2019-08-05 20:11:39.000000,137.96
2019-08-05 20:11:39.015625,215.08
2019-08-05 20:11:39.031250,272.21
2019-08-05 20:11:39.046875,283.38
2019-08-05 20:11:39.062500,239.54
2019-08-05 20:11:39.078125,155.92
2019-08-05 20:11:39.093750,58.94
2019-08-05 20:11:39.109375,-30.67
2019-08-05 20:11:39.125000,-104.28
2019-08-05 20:11:39.140625,-162.6
2019-08-05 20:11:39.156250,-210.09
2019-08-05 20:11:39.171875,-250.64
2019-08-05 20:11:39.187500,-282.55
2019-08-05 20:11:39.203125,-301.85
2019-08-05 20:11:39.218750,-306.09
2019-08-05 20:11:39.234375,-298.27
2019-08-05 20:11:39.250000,-283.46
2019-08-05 20:11:39.265625,-266.8
2019-08-05 20:11:39.281250,-251.62
2019-08-05 20:11:39.296875,-238.83
2019-08-05 20:11:39.312500,-227.11
2019-08-05 20:11:39.328125,-210.76
2019-08-05 20:11:39.343750,-183.46
2019-08-05 20:11:39.359375,-141.33
2019-08-05 20:11:39.375000,-86.2
2019-08-05 20:11:39.390625,-25.47
2019-08-05 20:11:39.406250,32.06
2019-08-05 20:11:39.421875,79.21
2019-08-05 20:11:39.437500,111.96
2019-08-05 20:11:39.453125,129.61
2019-08-05 20:11:39.468750,136.17
2019-08-05 20:11:39.484375,137.4
2019-08-05 20:11:39.500000,138.05
2019-08-05 20:11:39.515625,140.23
2019-08-05 20:11:39.531250,143.99
2019-08-05 20:11:39.546875,148.6
2019-08-05 20:11:39.562500,153.23
2019-08-05 20:11:39.578125,156.48
2019-08-05 20:11:39.593750,155.86
2019-08-05 20:11:39.609375,148.91
2019-08-05 20:11:39.625000,133.48
2019-08-05 20:11:39.640625,108.8
2019-08-05 20:11:39.656250,76.92
2019-08-05 20:11:39.671875,42.87
2019-08-05 20:11:39.687500,13.06
2019-08-05 20:11:39.703125,-7.64
2019-08-05 20:11:39.718750,-17.7
2019-08-05 20:11:39.734375,-20.75
2019-08-05 20:11:39.750000,-21.04
2019-08-05 20:11:39.765625,-22.15
2019-08-05 20:11:39.781250,-25.94
2019-08-05 20:11:39.796875,-32.56
2019-08-05 20:11:39.812500,-41.58
2019-08-05 20:11:39.828125,-52.98
2019-08-05 20:11:39.843750,-67.22
2019-08-05 20:11:39.859375,-84.87
2019-08-05 20:11:39.875000,-106.51
2019-08-05 20:11:39.890625,-131.67
2019-08-05 20:11:39.906250,-158.56
2019-08-05 20:11:39.921875,-183.85
2019-08-05 20:11:39.937500,-202.41
2019-08-05 20:11:39.953125,-208.64
2019-08-05 20:11:39.968750,-198.17
2019-08-05 20:11:39.984375,-170.16
2019-08-05 20:11:40.000000,-128.78
2019-08-05 20:11:40.015625,-82.53
2019-08-05 20:11:40.031250,-41.1
2019-08-05 20:11:40.046875,-11.85
2019-08-05 20:11:40.062500,2.9
2019-08-05 20:11:40.078125,6.25
2019-08-05 20:11:40.093750,4.27
2019-08-05 20:11:40.109375,2.73
2019-08-05 20:11:40.125000,4.4
2019-08-05 20:11:40.140625,8.39
2019-08-05 20:11:40.156250,11.54
2019-08-05 20:11:40.171875,11.1
2019-08-05 20:11:40.187500,6.32
2019-08-05 20:11:40.203125,-0.96
2019-08-05 20:11:40.218750,-7.74
2019-08-05 20:11:40.234375,-11.42
2019-08-05 20:11:40.250000,-11.3
2019-08-05 20:11:40.265625,-8.74
2019-08-05 20:11:40.281250,-6.48
2019-08-05 20:11:40.296875,-6.7
2019-08-05 20:11:40.312500,-9.56
2019-08-05 20:11:40.328125,-13.62
2019-08-05 20:11:40.343750,-17.37
2019-08-05 20:11:40.359375,-21.33
2019-08-05 20:11:40.375000,-28.66
2019-08-05 20:11:40.390625,-42.82
2019-08-05 20:11:40.406250,-64.44
2019-08-05 20:11:40.421875,-89.09
2019-08-05 20:11:40.437500,-107.88
2019-08-05 20:11:40.453125,-112.57
2019-08-05 20:11:40.468750,-100.7
2019-08-05 20:11:40.484375,-77.54
2019-08-05 20:11:40.500000,-53.47
2019-08-05 20:11:40.515625,-37.64
2019-08-05 20:11:40.531250,-32.46
2019-08-05 20:11:40.546875,-32.96
2019-08-05 20:11:40.562500,-30.89
2019-08-05 20:11:40.578125,-20.56
2019-08-05 20:11:40.593750,-3.02
2019-08-05 20:11:40.609375,14.8
2019-08-05 20:11:40.625000,25.1
2019-08-05 20:11:40.640625,24.25
2019-08-05 20:11:40.656250,15.03
2019-08-05 20:11:40.671875,4.53
2019-08-05 20:11:40.687500,-0.37
2019-08-05 20:11:40.703125,3.54
2019-08-05 20:11:40.718750,15.31
2019-08-05 20:11:40.734375,31.41
2019-08-05 20:11:40.750000,47.42
2019-08-05 20:11:40.765625,61.78
2019-08-05 20:11:40.781250,74.7
2019-08-05 20:11:40.796875,87.19
2019-08-05 20:11:40.812500,99.93
2019-08-05 20:11:40.828125,113.92
2019-08-05 20:11:40.843750,126.91
2019-08-05 20:11:40.859375,136.52
2019-08-05 20:11:40.875000,140.86
2019-08-05 20:11:40.890625,139.23
2019-08-05 20:11:40.906250,132.41
2019-08-05 20:11:40.921875,121.78
2019-08-05 20:11:40.937500,109.05
2019-08-05 20:11:40.953125,95.66
