2019-08-15 08:26:19.000000,-0.0
2019-08-15 08:26:19.015625,-0.0
2019-08-15 08:26:19.031250,-0.0
2019-08-15 08:26:19.046875,-0.0
2019-08-15 08:26:19.062500,-0.0
2019-08-15 08:26:19.078125,-0.0
2019-08-15 08:26:19.093750,-0.0
2019-08-15 08:26:19.109375,-0.0
2019-08-15 08:26:19.125000,-0.0
2019-08-15 08:26:19.140625,-0.0
2019-08-15 08:26:19.156250,0.0
2019-08-15 08:26:19.171875,0.01
2019-08-15 08:26:19.187500,0.01
2019-08-15 08:26:19.203125,-0.0
2019-08-15 08:26:19.218750,-0.03
2019-08-15 08:26:19.234375,-0.05
2019-08-15 08:26:19.250000,-0.05
2019-08-15 08:26:19.265625,0.0
2019-08-15 08:26:19.281250,0.13
2019-08-15 08:26:19.296875,0.36
2019-08-15 08:26:19.312500,0.66
2019-08-15 08:26:19.328125,1.01
2019-08-15 08:26:19.343750,1.37
2019-08-15 08:26:19.359375,1.72
2019-08-15 08:26:19.375000,2.06
2019-08-15 08:26:19.390625,2.4
2019-08-15 08:26:19.406250,2.79
2019-08-15 08:26:19.421875,3.24
2019-08-15 08:26:19.437500,3.8
2019-08-15 08:26:19.453125,4.43
2019-08-15 08:26:19.468750,5.08
2019-08-15 08:26:19.484375,5.7
2019-08-15 08:26:19.500000,6.28
2019-08-15 08:26:19.515625,6.81
2019-08-15 08:26:19.531250,7.37
2019-08-15 08:26:19.546875,8.04
2019-08-15 08:26:19.562500,8.85
2019-08-15 08:26:19.578125,9.93
2019-08-15 08:26:19.593750,11.17
2019-08-15 08:26:19.609375,12.48
2019-08-15 08:26:19.625000,13.73
2019-08-15 08:26:19.640625,14.88
2019-08-15 08:26:19.656250,15.97
2019-08-15 08:26:19.671875,17.16
2019-08-15 08:26:19.687500,18.67
2019-08-15 08:26:19.703125,20.65
2019-08-15 08:26:19.718750,23.3
2019-08-15 08:26:19.734375,26.45
2019-08-15 08:26:19.750000,29.82
2019-08-15 08:26:19.765625,33.13
2019-08-15 08:26:19.781250,36.2
2019-08-15 08:26:19.796875,39.13
2019-08-15 08:26:19.812500,42.23
2019-08-15 08:26:19.828125,45.96
2019-08-15 08:26:19.843750,50.63
2019-08-15 08:26:19.859375,56.63
2019-08-15 08:26:19.875000,63.63
2019-08-15 08:26:19.890625,71.1
2019-08-15 08:26:19.906250,78.47
2019-08-15 08:26:19.921875,85.41
2019-08-15 08:26:19.937500,92.01
2019-08-15 08:26:19.953125,98.79
2019-08-15 08:26:19.968750,106.49
2019-08-15 08:26:19.984375,115.65
2019-08-15 08:26:20.000000,126.82
2019-08-15 08:26:20.015625,139.5
2019-08-15 08:26:20.031250,152.88
2019-08-15 08:26:20.046875,166.08
2019-08-15 08:26:20.062500,178.55
2019-08-15 08:26:20.078125,190.36
2019-08-15 08:26:20.093750,202.19
2019-08-15 08:26:20.109375,215.43
2019-08-15 08:26:20.125000,228.81
2019-08-15 08:26:20.140625,244.63
2019-08-15 08:26:20.156250,263.48
2019-08-15 08:26:20.171875,285.46
2019-08-15 08:26:20.187500,309.38
2019-08-15 08:26:20.203125,332.37
2019-08-15 08:26:20.218750,350.13
2019-08-15 08:26:20.234375,358.06
2019-08-15 08:26:20.250000,352.82
2019-08-15 08:26:20.265625,333.56
2019-08-15 08:26:20.281250,302.66
2019-08-15 08:26:20.296875,263.96
2019-08-15 08:26:20.312500,221.76
2019-08-15 08:26:20.328125,179.29
2019-08-15 08:26:20.343750,138.09
2019-08-15 08:26:20.359375,98.45
2019-08-15 08:26:20.375000,60.21
2019-08-15 08:26:20.390625,23.61
2019-08-15 08:26:20.406250,-10.64
2019-08-15 08:26:20.421875,-41.31
2019-08-15 08:26:20.437500,-67.9
2019-08-15 08:26:20.453125,-90.62
2019-08-15 08:26:20.468750,-110.12
2019-08-15 08:26:20.484375,-127.01
2019-08-15 08:26:20.500000,-141.5
2019-08-15 08:26:20.515625,-153.46
2019-08-15 08:26:20.531250,-162.45
2019-08-15 08:26:20.546875,-168.27
2019-08-15 08:26:20.562500,-170.99
2019-08-15 08:26:20.578125,-171.47
2019-08-15 08:26:20.593750,-170.89
2019-08-15 08:26:20.609375,-170.45
2019-08-15 08:26:20.625000,-171.04
2019-08-15 08:26:20.640625,-172.72
2019-08-15 08:26:20.656250,-175.16
2019-08-15 08:26:20.671875,-177.82
2019-08-15 08:26:20.687500,-180.27
2019-08-15 08:26:20.703125,-182.21
2019-08-15 08:26:20.718750,-183.79
2019-08-15 08:26:20.734375,-185.35
2019-08-15 08:26:20.750000,-187.25
2019-08-15 08:26:20.765625,-189.75
2019-08-15 08:26:20.781250,-192.98
2019-08-15 08:26:20.796875,-197.01
2019-08-15 08:26:20.812500,-201.88
2019-08-15 08:26:20.828125,-207.54
2019-08-15 08:26:20.843750,-213.8
2019-08-15 08:26:20.859375,-220.38
2019-08-15 08:26:20.875000,-226.88
2019-08-15 08:26:20.890625,-233.18
2019-08-15 08:26:20.906250,-239.66
2019-08-15 08:26:20.921875,-247.43
2019-08-15 08:26:20.937500,-257.88
2019-08-15 08:26:20.953125,-271.74
2019-08-15 08:26:20.968750,-288.27
2019-08-15 08:26:20.984375,-304.84
2019-08-15 08:26:21.000000,-317.7
2019-08-15 08:26:21.015625,-323.43
2019-08-15 08:26:21.031250,-320.25
2019-08-15 08:26:21.046875,-308.48
2019-08-15 08:26:21.062500,-289.87
2019-08-15 08:26:21.078125,-266.43
2019-08-15 08:26:21.093750,-239.44
2019-08-15 08:26:21.109375,-209.63
2019-08-15 08:26:21.125000,-177.99
2019-08-15 08:26:21.140625,-146.52
2019-08-15 08:26:21.156250,-118.11
2019-08-15 08:26:21.171875,-95.27
2019-08-15 08:26:21.187500,-78.75
2019-08-15 08:26:21.203125,-66.89
2019-08-15 08:26:21.218750,-56.51
2019-08-15 08:26:21.234375,-44.7
2019-08-15 08:26:21.250000,-30.67
2019-08-15 08:26:21.265625,-16.15
2019-08-15 08:26:21.281250,-4.28
2019-08-15 08:26:21.296875,2.3
2019-08-15 08:26:21.312500,3.27
2019-08-15 08:26:21.328125,0.9
2019-08-15 08:26:21.343750,-1.08
2019-08-15 08:26:21.359375,0.37
2019-08-15 08:26:21.375000,6.05
2019-08-15 08:26:21.390625,14.09
2019-08-15 08:26:21.406250,21.14
2019-08-15 08:26:21.421875,24.5
2019-08-15 08:26:21.437500,23.77
2019-08-15 08:26:21.453125,21.4
2019-08-15 08:26:21.468750,21.19
2019-08-15 08:26:21.484375,26.02
2019-08-15 08:26:21.500000,35.94
2019-08-15 08:26:21.515625,47.85
2019-08-15 08:26:21.531250,57.22
2019-08-15 08:26:21.546875,60.68
2019-08-15 08:26:21.562500,58.06
2019-08-15 08:26:21.578125,52.41
2019-08-15 08:26:21.593750,48.16
2019-08-15 08:26:21.609375,48.34
2019-08-15 08:26:21.625000,52.72
2019-08-15 08:26:21.640625,57.89
2019-08-15 08:26:21.656250,59.32
2019-08-15 08:26:21.671875,54.08
2019-08-15 08:26:21.687500,42.64
2019-08-15 08:26:21.703125,28.8
2019-08-15 08:26:21.718750,17.62
2019-08-15 08:26:21.734375,12.83
2019-08-15 08:26:21.750000,15.06
2019-08-15 08:26:21.765625,21.76
2019-08-15 08:26:21.781250,28.84
2019-08-15 08:26:21.796875,32.94
2019-08-15 08:26:21.812500,33.06
2019-08-15 08:26:21.828125,30.71
2019-08-15 08:26:21.843750,28.63
2019-08-15 08:26:21.859375,28.81
2019-08-15 08:26:21.875000,31.23
2019-08-15 08:26:21.890625,33.77
2019-08-15 08:26:21.906250,33.55
2019-08-15 08:26:21.921875,28.91
2019-08-15 08:26:21.937500,20.67
2019-08-15 08:26:21.953125,12.03
2019-08-15 08:26:21.968750,7.0
2019-08-15 08:26:21.984375,8.22
2019-08-15 08:26:22.000000,15.42
2019-08-15 08:26:22.015625,25.32
2019-08-15 08:26:22.031250,33.28
2019-08-15 08:26:22.046875,35.67
2019-08-15 08:26:22.062500,31.72
2019-08-15 08:26:22.078125,23.84
2019-08-15 08:26:22.093750,16.08
2019-08-15 08:26:22.109375,11.73
2019-08-15 08:26:22.125000,11.43
2019-08-15 08:26:22.140625,12.86
2019-08-15 08:26:22.156250,12.37
2019-08-15 08:26:22.171875,7.35
2019-08-15 08:26:22.187500,-1.84
2019-08-15 08:26:22.203125,-11.84
2019-08-15 08:26:22.218750,-17.98
2019-08-15 08:26:22.234375,-17.16
2019-08-15 08:26:22.250000,-9.61
2019-08-15 08:26:22.265625,0.91
2019-08-15 08:26:22.281250,9.06
2019-08-15 08:26:22.296875,10.9
2019-08-15 08:26:22.312500,5.89
2019-08-15 08:26:22.328125,-2.85
2019-08-15 08:26:22.343750,-10.52
2019-08-15 08:26:22.359375,-13.56
2019-08-15 08:26:22.375000,-11.61
2019-08-15 08:26:22.390625,-7.71
2019-08-15 08:26:22.406250,-6.23
2019-08-15 08:26:22.421875,-10.32
2019-08-15 08:26:22.437500,-19.78
2019-08-15 08:26:22.453125,-31.12
2019-08-15 08:26:22.468750,-39.45
2019-08-15 08:26:22.484375,-41.3
2019-08-15 08:26:22.500000,-36.44
2019-08-15 08:26:22.515625,-27.95
2019-08-15 08:26:22.531250,-20.36
2019-08-15 08:26:22.546875,-16.77
2019-08-15 08:26:22.562500,-17.24
2019-08-15 08:26:22.578125,-18.79
2019-08-15 08:26:22.593750,-17.45
2019-08-15 08:26:22.609375,-10.79
2019-08-15 08:26:22.625000,0.27
2019-08-15 08:26:22.640625,11.92
2019-08-15 08:26:22.656250,19.55
2019-08-15 08:26:22.671875,20.4
2019-08-15 08:26:22.687500,15.23
2019-08-15 08:26:22.703125,7.91
2019-08-15 08:26:22.718750,3.17
2019-08-15 08:26:22.734375,3.71
2019-08-15 08:26:22.750000,8.82
2019-08-15 08:26:22.765625,14.66
2019-08-15 08:26:22.781250,16.62
2019-08-15 08:26:22.796875,12.0
2019-08-15 08:26:22.812500,1.62
2019-08-15 08:26:22.828125,-10.46
2019-08-15 08:26:22.843750,-19.14
2019-08-15 08:26:22.859375,-20.93
2019-08-15 08:26:22.875000,-15.66
2019-08-15 08:26:22.890625,-6.45
2019-08-15 08:26:22.906250,2.17
2019-08-15 08:26:22.921875,6.83
2019-08-15 08:26:22.937500,7.14
2019-08-15 08:26:22.953125,5.51
2019-08-15 08:26:22.968750,5.36
2019-08-15 08:26:22.984375,8.66
2019-08-15 08:26:23.000000,14.45
2019-08-15 08:26:23.015625,19.36
2019-08-15 08:26:23.031250,19.62
2019-08-15 08:26:23.046875,13.79
2019-08-15 08:26:23.062500,3.99
2019-08-15 08:26:23.078125,-4.98
2019-08-15 08:26:23.093750,-8.26
2019-08-15 08:26:23.109375,-3.66
2019-08-15 08:26:23.125000,7.06
2019-08-15 08:26:23.140625,19.13
2019-08-15 08:26:23.156250,27.54
2019-08-15 08:26:23.171875,29.74
2019-08-15 08:26:23.187500,26.9
2019-08-15 08:26:23.203125,22.91
2019-08-15 08:26:23.218750,21.9
2019-08-15 08:26:23.234375,25.62
2019-08-15 08:26:23.250000,32.5
2019-08-15 08:26:23.265625,38.6
2019-08-15 08:26:23.281250,40.0
2019-08-15 08:26:23.296875,35.28
2019-08-15 08:26:23.312500,26.45
2019-08-15 08:26:23.328125,18.01
2019-08-15 08:26:23.343750,14.35
2019-08-15 08:26:23.359375,17.42
2019-08-15 08:26:23.375000,25.54
2019-08-15 08:26:23.390625,34.53
2019-08-15 08:26:23.406250,39.88
2019-08-15 08:26:23.421875,39.43
2019-08-15 08:26:23.437500,34.61
2019-08-15 08:26:23.453125,29.48
2019-08-15 08:26:23.468750,28.43
2019-08-15 08:26:23.484375,33.56
2019-08-15 08:26:23.500000,43.32
2019-08-15 08:26:23.515625,53.33
2019-08-15 08:26:23.531250,58.69
2019-08-15 08:26:23.546875,56.77
2019-08-15 08:26:23.562500,48.68
2019-08-15 08:26:23.578125,38.71
2019-08-15 08:26:23.593750,31.8
2019-08-15 08:26:23.609375,30.74
2019-08-15 08:26:23.625000,34.53
2019-08-15 08:26:23.640625,39.05
2019-08-15 08:26:23.656250,39.46
2019-08-15 08:26:23.671875,33.24
2019-08-15 08:26:23.687500,21.88
2019-08-15 08:26:23.703125,10.1
2019-08-15 08:26:23.718750,3.27
2019-08-15 08:26:23.734375,4.3
2019-08-15 08:26:23.750000,12.03
2019-08-15 08:26:23.765625,21.95
2019-08-15 08:26:23.781250,28.83
2019-08-15 08:26:23.796875,29.7
2019-08-15 08:26:23.812500,25.25
2019-08-15 08:26:23.828125,19.19
2019-08-15 08:26:23.843750,15.81
2019-08-15 08:26:23.859375,17.38
2019-08-15 08:26:23.875000,22.82
2019-08-15 08:26:23.890625,28.5
2019-08-15 08:26:23.906250,30.35
2019-08-15 08:26:23.921875,26.25
2019-08-15 08:26:23.937500,17.28
2019-08-15 08:26:23.953125,7.05
2019-08-15 08:26:23.968750,-0.25
2019-08-15 08:26:23.984375,-2.22
2019-08-15 08:26:24.000000,0.46
2019-08-15 08:26:24.015625,4.57
2019-08-15 08:26:24.031250,6.18
2019-08-15 08:26:24.046875,3.07
2019-08-15 08:26:24.062500,-3.95
2019-08-15 08:26:24.078125,-11.32
2019-08-15 08:26:24.093750,-14.93
2019-08-15 08:26:24.109375,-12.43
2019-08-15 08:26:24.125000,-4.79
2019-08-15 08:26:24.140625,4.2
2019-08-15 08:26:24.156250,10.11
2019-08-15 08:26:24.171875,10.43
2019-08-15 08:26:24.187500,5.89
2019-08-15 08:26:24.203125,0.01
2019-08-15 08:26:24.218750,-3.15
2019-08-15 08:26:24.234375,-1.43
2019-08-15 08:26:24.250000,4.23
2019-08-15 08:26:24.265625,10.2
2019-08-15 08:26:24.281250,12.53
2019-08-15 08:26:24.296875,9.24
2019-08-15 08:26:24.312500,1.57
2019-08-15 08:26:24.328125,-6.73
2019-08-15 08:26:24.343750,-11.53
2019-08-15 08:26:24.359375,-10.72
2019-08-15 08:26:24.375000,-5.52
2019-08-15 08:26:24.390625,0.33
2019-08-15 08:26:24.406250,2.67
2019-08-15 08:26:24.421875,-0.51
2019-08-15 08:26:24.437500,-7.83
2019-08-15 08:26:24.453125,-15.23
2019-08-15 08:26:24.468750,-18.24
2019-08-15 08:26:24.484375,-14.59
2019-08-15 08:26:24.500000,-5.5
2019-08-15 08:26:24.515625,4.93
2019-08-15 08:26:24.531250,12.06
2019-08-15 08:26:24.546875,13.21
2019-08-15 08:26:24.562500,9.0
2019-08-15 08:26:24.578125,2.87
2019-08-15 08:26:24.593750,-1.09
2019-08-15 08:26:24.609375,-0.51
2019-08-15 08:26:24.625000,3.96
2019-08-15 08:26:24.640625,8.95
2019-08-15 08:26:24.656250,10.44
2019-08-15 08:26:24.671875,6.33
2019-08-15 08:26:24.687500,-2.25
2019-08-15 08:26:24.703125,-11.28
2019-08-15 08:26:24.718750,-16.04
2019-08-15 08:26:24.734375,-13.81
2019-08-15 08:26:24.750000,-5.4
2019-08-15 08:26:24.765625,5.03
2019-08-15 08:26:24.781250,12.46
2019-08-15 08:26:24.796875,13.64
2019-08-15 08:26:24.812500,9.04
2019-08-15 08:26:24.828125,2.32
2019-08-15 08:26:24.843750,-1.85
2019-08-15 08:26:24.859375,-0.49
2019-08-15 08:26:24.875000,5.81
2019-08-15 08:26:24.890625,13.52
2019-08-15 08:26:24.906250,18.11
2019-08-15 08:26:24.921875,16.97
2019-08-15 08:26:24.937500,10.67
2019-08-15 08:26:24.953125,2.61
2019-08-15 08:26:24.968750,-3.2
2019-08-15 08:26:24.984375,-4.43
2019-08-15 08:26:25.000000,-1.74
2019-08-15 08:26:25.015625,1.76
2019-08-15 08:26:25.031250,2.69
2019-08-15 08:26:25.046875,-0.51
2019-08-15 08:26:25.062500,-6.49
2019-08-15 08:26:25.078125,-11.78
2019-08-15 08:26:25.093750,-12.82
2019-08-15 08:26:25.109375,-8.28
2019-08-15 08:26:25.125000,0.15
2019-08-15 08:26:25.140625,8.62
2019-08-15 08:26:25.156250,13.33
2019-08-15 08:26:25.171875,12.66
2019-08-15 08:26:25.187500,8.0
2019-08-15 08:26:25.203125,2.85
2019-08-15 08:26:25.218750,0.65
2019-08-15 08:26:25.234375,2.8
2019-08-15 08:26:25.250000,7.97
2019-08-15 08:26:25.265625,12.83
2019-08-15 08:26:25.281250,14.19
2019-08-15 08:26:25.296875,10.73
2019-08-15 08:26:25.312500,3.9
2019-08-15 08:26:25.328125,-3.0
2019-08-15 08:26:25.343750,-6.68
2019-08-15 08:26:25.359375,-5.85
2019-08-15 08:26:25.375000,-1.98
2019-08-15 08:26:25.390625,1.59
2019-08-15 08:26:25.406250,1.57
2019-08-15 08:26:25.421875,-3.05
2019-08-15 08:26:25.437500,-10.19
2019-08-15 08:26:25.453125,-15.73
2019-08-15 08:26:25.468750,-15.87
2019-08-15 08:26:25.484375,-9.33
2019-08-15 08:26:25.500000,1.58
2019-08-15 08:26:25.515625,12.13
2019-08-15 08:26:25.531250,17.79
2019-08-15 08:26:25.546875,16.59
2019-08-15 08:26:25.562500,10.07
2019-08-15 08:26:25.578125,2.22
2019-08-15 08:26:25.593750,-2.91
2019-08-15 08:26:25.609375,-3.58
2019-08-15 08:26:25.625000,-1.18
2019-08-15 08:26:25.640625,0.94
2019-08-15 08:26:25.656250,-0.4
2019-08-15 08:26:25.671875,-6.11
2019-08-15 08:26:25.687500,-14.24
2019-08-15 08:26:25.703125,-21.02
2019-08-15 08:26:25.718750,-22.92
2019-08-15 08:26:25.734375,-18.61
2019-08-15 08:26:25.750000,-9.67
2019-08-15 08:26:25.765625,0.15
2019-08-15 08:26:25.781250,7.01
2019-08-15 08:26:25.796875,8.88
2019-08-15 08:26:25.812500,6.6
2019-08-15 08:26:25.828125,3.14
2019-08-15 08:26:25.843750,1.82
2019-08-15 08:26:25.859375,4.14
2019-08-15 08:26:25.875000,8.94
2019-08-15 08:26:25.890625,12.96
2019-08-15 08:26:25.906250,12.9
2019-08-15 08:26:25.921875,7.55
2019-08-15 08:26:25.937500,-1.27
2019-08-15 08:26:25.953125,-9.5
2019-08-15 08:26:25.968750,-13.09
2019-08-15 08:26:25.984375,-10.26
2019-08-15 08:26:26.000000,-2.56
2019-08-15 08:26:26.015625,5.99
2019-08-15 08:26:26.031250,11.17
2019-08-15 08:26:26.046875,10.92
2019-08-15 08:26:26.062500,6.27
2019-08-15 08:26:26.078125,0.65
2019-08-15 08:26:26.093750,-2.3
2019-08-15 08:26:26.109375,-0.9
2019-08-15 08:26:26.125000,3.51
2019-08-15 08:26:26.140625,7.5
2019-08-15 08:26:26.156250,7.57
2019-08-15 08:26:26.171875,2.43
2019-08-15 08:26:26.187500,-6.0
2019-08-15 08:26:26.203125,-13.65
2019-08-15 08:26:26.218750,-16.51
2019-08-15 08:26:26.234375,-13.0
2019-08-15 08:26:26.250000,-4.99
2019-08-15 08:26:26.265625,3.26
2019-08-15 08:26:26.281250,7.45
2019-08-15 08:26:26.296875,5.71
2019-08-15 08:26:26.312500,-0.3
2019-08-15 08:26:26.328125,-6.48
2019-08-15 08:26:26.343750,-8.63
2019-08-15 08:26:26.359375,-5.02
2019-08-15 08:26:26.375000,2.78
2019-08-15 08:26:26.390625,10.8
2019-08-15 08:26:26.406250,15.06
2019-08-15 08:26:26.421875,13.92
2019-08-15 08:26:26.437500,8.78
2019-08-15 08:26:26.453125,3.05
2019-08-15 08:26:26.468750,0.04
2019-08-15 08:26:26.484375,0.79
2019-08-15 08:26:26.500000,3.64
2019-08-15 08:26:26.515625,5.33
2019-08-15 08:26:26.531250,3.09
2019-08-15 08:26:26.546875,-3.46
2019-08-15 08:26:26.562500,-11.9
2019-08-15 08:26:26.578125,-18.23
2019-08-15 08:26:26.593750,-19.24
2019-08-15 08:26:26.609375,-14.43
2019-08-15 08:26:26.625000,-6.51
2019-08-15 08:26:26.640625,0.14
2019-08-15 08:26:26.656250,1.87
2019-08-15 08:26:26.671875,-2.0
2019-08-15 08:26:26.687500,-8.8
2019-08-15 08:26:26.703125,-13.92
2019-08-15 08:26:26.718750,-13.48
2019-08-15 08:26:26.734375,-6.59
2019-08-15 08:26:26.750000,4.09
2019-08-15 08:26:26.765625,13.83
2019-08-15 08:26:26.781250,18.58
2019-08-15 08:26:26.796875,17.16
2019-08-15 08:26:26.812500,11.87
2019-08-15 08:26:26.828125,6.86
2019-08-15 08:26:26.843750,5.71
2019-08-15 08:26:26.859375,9.31
2019-08-15 08:26:26.875000,15.45
2019-08-15 08:26:26.890625,20.3
2019-08-15 08:26:26.906250,20.78
2019-08-15 08:26:26.921875,16.3
2019-08-15 08:26:26.937500,9.13
2019-08-15 08:26:26.953125,2.89
2019-08-15 08:26:26.968750,0.53
2019-08-15 08:26:26.984375,2.52
2019-08-15 08:26:27.000000,6.7
2019-08-15 08:26:27.015625,9.45
2019-08-15 08:26:27.031250,7.84
2019-08-15 08:26:27.046875,1.38
2019-08-15 08:26:27.062500,-7.78
2019-08-15 08:26:27.078125,-15.79
2019-08-15 08:26:27.093750,-19.35
2019-08-15 08:26:27.109375,-17.52
2019-08-15 08:26:27.125000,-12.21
2019-08-15 08:26:27.140625,-7.16
2019-08-15 08:26:27.156250,-5.79
2019-08-15 08:26:27.171875,-9.04
2019-08-15 08:26:27.187500,-14.87
2019-08-15 08:26:27.203125,-19.23
2019-08-15 08:26:27.218750,-18.53
2019-08-15 08:26:27.234375,-11.76
2019-08-15 08:26:27.250000,-1.21
2019-08-15 08:26:27.265625,8.5
2019-08-15 08:26:27.281250,13.02
2019-08-15 08:26:27.296875,10.57
2019-08-15 08:26:27.312500,3.04
2019-08-15 08:26:27.328125,-5.27
2019-08-15 08:26:27.343750,-10.04
2019-08-15 08:26:27.359375,-9.38
2019-08-15 08:26:27.375000,-4.88
2019-08-15 08:26:27.390625,-0.47
2019-08-15 08:26:27.406250,0.12
2019-08-15 08:26:27.421875,-4.11
2019-08-15 08:26:27.437500,-10.78
2019-08-15 08:26:27.453125,-15.34
2019-08-15 08:26:27.468750,-13.92
2019-08-15 08:26:27.484375,-5.84
2019-08-15 08:26:27.500000,5.77
2019-08-15 08:26:27.515625,15.48
2019-08-15 08:26:27.531250,18.79
2019-08-15 08:26:27.546875,14.65
2019-08-15 08:26:27.562500,6.07
2019-08-15 08:26:27.578125,-1.52
2019-08-15 08:26:27.593750,-3.47
2019-08-15 08:26:27.609375,1.5
2019-08-15 08:26:27.625000,10.74
2019-08-15 08:26:27.640625,19.24
2019-08-15 08:26:27.656250,22.58
2019-08-15 08:26:27.671875,19.4
2019-08-15 08:26:27.687500,11.95
2019-08-15 08:26:27.703125,4.57
2019-08-15 08:26:27.718750,0.97
2019-08-15 08:26:27.734375,1.96
2019-08-15 08:26:27.750000,5.16
2019-08-15 08:26:27.765625,6.52
2019-08-15 08:26:27.781250,3.04
2019-08-15 08:26:27.796875,-5.22
2019-08-15 08:26:27.812500,-14.88
2019-08-15 08:26:27.828125,-21.15
2019-08-15 08:26:27.843750,-20.66
2019-08-15 08:26:27.859375,-13.48
2019-08-15 08:26:27.875000,-3.16
2019-08-15 08:26:27.890625,5.22
2019-08-15 08:26:27.906250,7.93
2019-08-15 08:26:27.921875,4.73
2019-08-15 08:26:27.937500,-1.27
2019-08-15 08:26:27.953125,-5.45
2019-08-15 08:26:27.968750,-4.58
2019-08-15 08:26:27.984375,1.22
2019-08-15 08:26:28.000000,8.67
2019-08-15 08:26:28.015625,13.09
2019-08-15 08:26:28.031250,11.32
2019-08-15 08:26:28.046875,3.58
2019-08-15 08:26:28.062500,-6.62
2019-08-15 08:26:28.078125,-14.44
2019-08-15 08:26:28.093750,-16.43
2019-08-15 08:26:28.109375,-12.44
2019-08-15 08:26:28.125000,-5.62
2019-08-15 08:26:28.140625,-0.47
2019-08-15 08:26:28.156250,-0.23
2019-08-15 08:26:28.171875,-4.96
2019-08-15 08:26:28.187500,-11.52
2019-08-15 08:26:28.203125,-15.37
2019-08-15 08:26:28.218750,-13.27
2019-08-15 08:26:28.234375,-5.28
2019-08-15 08:26:28.250000,5.25
2019-08-15 08:26:28.265625,13.44
2019-08-15 08:26:28.281250,15.77
2019-08-15 08:26:28.296875,12.06
2019-08-15 08:26:28.312500,5.51
2019-08-15 08:26:28.328125,0.81
2019-08-15 08:26:28.343750,1.26
2019-08-15 08:26:28.359375,6.76
2019-08-15 08:26:28.375000,13.72
2019-08-15 08:26:28.390625,17.27
2019-08-15 08:26:28.406250,14.02
2019-08-15 08:26:28.421875,4.33
2019-08-15 08:26:28.437500,-7.87
2019-08-15 08:26:28.453125,-17.13
2019-08-15 08:26:28.468750,-19.47
2019-08-15 08:26:28.484375,-14.51
2019-08-15 08:26:28.500000,-5.46
2019-08-15 08:26:28.515625,2.83
2019-08-15 08:26:28.531250,6.65
2019-08-15 08:26:28.546875,5.31
2019-08-15 08:26:28.562500,1.27
2019-08-15 08:26:28.578125,-1.66
2019-08-15 08:26:28.593750,-0.69
2019-08-15 08:26:28.609375,4.32
2019-08-15 08:26:28.625000,10.75
2019-08-15 08:26:28.640625,14.87
2019-08-15 08:26:28.656250,14.06
2019-08-15 08:26:28.671875,8.43
2019-08-15 08:26:28.687500,0.77
2019-08-15 08:26:28.703125,-4.99
2019-08-15 08:26:28.718750,-6.2
2019-08-15 08:26:28.734375,-2.93
2019-08-15 08:26:28.750000,1.97
2019-08-15 08:26:28.765625,4.45
2019-08-15 08:26:28.781250,1.83
2019-08-15 08:26:28.796875,-5.47
2019-08-15 08:26:28.812500,-14.08
2019-08-15 08:26:28.828125,-19.41
2019-08-15 08:26:28.843750,-18.14
2019-08-15 08:26:28.859375,-10.37
2019-08-15 08:26:28.875000,0.48
2019-08-15 08:26:28.890625,9.45
2019-08-15 08:26:28.906250,12.57
2019-08-15 08:26:28.921875,9.0
2019-08-15 08:26:28.937500,1.28
2019-08-15 08:26:28.953125,-6.32
2019-08-15 08:26:28.968750,-10.22
2019-08-15 08:26:28.984375,-9.47
2019-08-15 08:26:29.000000,-6.02
2019-08-15 08:26:29.015625,-3.17
2019-08-15 08:26:29.031250,-3.21
2019-08-15 08:26:29.046875,-5.9
2019-08-15 08:26:29.062500,-8.46
2019-08-15 08:26:29.078125,-7.45
2019-08-15 08:26:29.093750,-1.1
2019-08-15 08:26:29.109375,9.17
2019-08-15 08:26:29.125000,19.28
2019-08-15 08:26:29.140625,24.48
2019-08-15 08:26:29.156250,22.03
2019-08-15 08:26:29.171875,12.84
2019-08-15 08:26:29.187500,1.1
2019-08-15 08:26:29.203125,-7.88
2019-08-15 08:26:29.218750,-10.53
2019-08-15 08:26:29.234375,-6.79
2019-08-15 08:26:29.250000,-0.03
2019-08-15 08:26:29.265625,5.05
2019-08-15 08:26:29.281250,5.16
2019-08-15 08:26:29.296875,0.36
2019-08-15 08:26:29.312500,-6.06
2019-08-15 08:26:29.328125,-9.65
2019-08-15 08:26:29.343750,-7.36
2019-08-15 08:26:29.359375,0.43
2019-08-15 08:26:29.375000,10.12
2019-08-15 08:26:29.390625,17.08
2019-08-15 08:26:29.406250,18.3
2019-08-15 08:26:29.421875,14.13
2019-08-15 08:26:29.437500,7.97
2019-08-15 08:26:29.453125,3.98
2019-08-15 08:26:29.468750,4.41
2019-08-15 08:26:29.484375,8.26
2019-08-15 08:26:29.500000,11.93
2019-08-15 08:26:29.515625,11.57
2019-08-15 08:26:29.531250,5.55
2019-08-15 08:26:29.546875,-4.36
2019-08-15 08:26:29.562500,-13.9
2019-08-15 08:26:29.578125,-18.73
2019-08-15 08:26:29.593750,-16.93
2019-08-15 08:26:29.609375,-10.19
2019-08-15 08:26:29.625000,-2.83
2019-08-15 08:26:29.640625,0.61
2019-08-15 08:26:29.656250,-1.99
2019-08-15 08:26:29.671875,-9.18
2019-08-15 08:26:29.687500,-16.77
2019-08-15 08:26:29.703125,-20.18
2019-08-15 08:26:29.718750,-17.21
2019-08-15 08:26:29.734375,-9.26
2019-08-15 08:26:29.750000,-0.54
2019-08-15 08:26:29.765625,4.36
2019-08-15 08:26:29.781250,3.28
2019-08-15 08:26:29.796875,-2.34
2019-08-15 08:26:29.812500,-8.21
2019-08-15 08:26:29.828125,-9.78
2019-08-15 08:26:29.843750,-4.9
2019-08-15 08:26:29.859375,4.91
2019-08-15 08:26:29.875000,15.39
2019-08-15 08:26:29.890625,21.97
2019-08-15 08:26:29.906250,22.34
2019-08-15 08:26:29.921875,17.55
2019-08-15 08:26:29.937500,11.26
2019-08-15 08:26:29.953125,7.46
2019-08-15 08:26:29.968750,8.08
2019-08-15 08:26:29.984375,11.93
2019-08-15 08:26:30.000000,15.53
2019-08-15 08:26:30.015625,15.25
2019-08-15 08:26:30.031250,9.57
2019-08-15 08:26:30.046875,0.03
2019-08-15 08:26:30.062500,-9.54
2019-08-15 08:26:30.078125,-15.27
2019-08-15 08:26:30.093750,-15.41
2019-08-15 08:26:30.109375,-11.4
2019-08-15 08:26:30.125000,-6.99
2019-08-15 08:26:30.140625,-6.06
2019-08-15 08:26:30.156250,-10.25
2019-08-15 08:26:30.171875,-17.92
2019-08-15 08:26:30.187500,-24.9
2019-08-15 08:26:30.203125,-26.83
2019-08-15 08:26:30.218750,-21.65
2019-08-15 08:26:30.234375,-10.93
2019-08-15 08:26:30.250000,0.91
2019-08-15 08:26:30.265625,8.94
2019-08-15 08:26:30.281250,10.41
2019-08-15 08:26:30.296875,6.15
2019-08-15 08:26:30.312500,0.05
2019-08-15 08:26:30.328125,-3.25
2019-08-15 08:26:30.343750,-1.04
2019-08-15 08:26:30.359375,6.11
2019-08-15 08:26:30.375000,14.75
2019-08-15 08:26:30.390625,20.75
2019-08-15 08:26:30.406250,21.73
2019-08-15 08:26:30.421875,18.27
2019-08-15 08:26:30.437500,13.4
2019-08-15 08:26:30.453125,10.51
2019-08-15 08:26:30.468750,11.14
2019-08-15 08:26:30.484375,13.99
2019-08-15 08:26:30.500000,15.75
2019-08-15 08:26:30.515625,13.37
2019-08-15 08:26:30.531250,6.11
2019-08-15 08:26:30.546875,-3.72
2019-08-15 08:26:30.562500,-11.89
2019-08-15 08:26:30.578125,-14.63
2019-08-15 08:26:30.593750,-10.92
2019-08-15 08:26:30.609375,-3.25
2019-08-15 08:26:30.625000,3.69
2019-08-15 08:26:30.640625,5.56
2019-08-15 08:26:30.656250,0.77
2019-08-15 08:26:30.671875,-8.65
2019-08-15 08:26:30.687500,-18.07
2019-08-15 08:26:30.703125,-22.86
2019-08-15 08:26:30.718750,-20.85
2019-08-15 08:26:30.734375,-13.4
2019-08-15 08:26:30.750000,-4.58
2019-08-15 08:26:30.765625,1.18
2019-08-15 08:26:30.781250,1.65
2019-08-15 08:26:30.796875,-2.24
2019-08-15 08:26:30.812500,-6.99
2019-08-15 08:26:30.828125,-8.7
2019-08-15 08:26:30.843750,-5.43
2019-08-15 08:26:30.859375,1.72
2019-08-15 08:26:30.875000,9.32
2019-08-15 08:26:30.890625,13.7
2019-08-15 08:26:30.906250,13.21
2019-08-15 08:26:30.921875,9.14
2019-08-15 08:26:30.937500,4.87
2019-08-15 08:26:30.953125,3.62
2019-08-15 08:26:30.968750,6.38
2019-08-15 08:26:30.984375,11.2
2019-08-15 08:26:31.000000,14.26
2019-08-15 08:26:31.015625,12.28
2019-08-15 08:26:31.031250,4.56
2019-08-15 08:26:31.046875,-6.34
2019-08-15 08:26:31.062500,-16.03
2019-08-15 08:26:31.078125,-20.58
2019-08-15 08:26:31.093750,-18.74
2019-08-15 08:26:31.109375,-12.74
2019-08-15 08:26:31.125000,-6.99
2019-08-15 08:26:31.140625,-5.63
2019-08-15 08:26:31.156250,-10.1
2019-08-15 08:26:31.171875,-18.3
2019-08-15 08:26:31.187500,-25.52
2019-08-15 08:26:31.203125,-27.11
2019-08-15 08:26:31.218750,-21.04
2019-08-15 08:26:31.234375,-9.0
2019-08-15 08:26:31.250000,4.25
2019-08-15 08:26:31.265625,13.51
2019-08-15 08:26:31.281250,15.83
2019-08-15 08:26:31.296875,12.0
2019-08-15 08:26:31.312500,5.9
2019-08-15 08:26:31.328125,2.16
2019-08-15 08:26:31.343750,3.47
2019-08-15 08:26:31.359375,9.08
2019-08-15 08:26:31.375000,15.55
2019-08-15 08:26:31.390625,18.89
2019-08-15 08:26:31.406250,17.2
2019-08-15 08:26:31.421875,11.75
2019-08-15 08:26:31.437500,6.19
2019-08-15 08:26:31.453125,4.11
2019-08-15 08:26:31.468750,6.75
2019-08-15 08:26:31.484375,12.17
2019-08-15 08:26:31.500000,16.17
2019-08-15 08:26:31.515625,15.01
2019-08-15 08:26:31.531250,7.63
2019-08-15 08:26:31.546875,-3.51
2019-08-15 08:26:31.562500,-13.72
2019-08-15 08:26:31.578125,-18.77
2019-08-15 08:26:31.593750,-17.24
2019-08-15 08:26:31.609375,-11.37
2019-08-15 08:26:31.625000,-5.74
2019-08-15 08:26:31.640625,-4.61
2019-08-15 08:26:31.656250,-9.39
2019-08-15 08:26:31.671875,-17.77
2019-08-15 08:26:31.687500,-25.01
2019-08-15 08:26:31.703125,-26.75
2019-08-15 08:26:31.718750,-21.54
2019-08-15 08:26:31.734375,-11.65
2019-08-15 08:26:31.750000,-1.82
2019-08-15 08:26:31.765625,3.61
2019-08-15 08:26:31.781250,3.13
2019-08-15 08:26:31.796875,-1.12
2019-08-15 08:26:31.812500,-4.86
2019-08-15 08:26:31.828125,-4.35
2019-08-15 08:26:31.843750,1.33
2019-08-15 08:26:31.859375,9.67
2019-08-15 08:26:31.875000,16.53
2019-08-15 08:26:31.890625,18.6
2019-08-15 08:26:31.906250,15.56
2019-08-15 08:26:31.921875,10.19
2019-08-15 08:26:31.937500,6.67
2019-08-15 08:26:31.953125,7.82
2019-08-15 08:26:31.968750,13.43
2019-08-15 08:26:31.984375,20.3
2019-08-15 08:26:32.000000,24.03
2019-08-15 08:26:32.015625,21.72
2019-08-15 08:26:32.031250,13.64
2019-08-15 08:26:32.046875,3.19
2019-08-15 08:26:32.062500,-4.92
2019-08-15 08:26:32.078125,-7.29
2019-08-15 08:26:32.093750,-3.81
2019-08-15 08:26:32.109375,2.4
2019-08-15 08:26:32.125000,6.73
2019-08-15 08:26:32.140625,5.66
2019-08-15 08:26:32.156250,-1.17
2019-08-15 08:26:32.171875,-10.72
2019-08-15 08:26:32.187500,-18.27
2019-08-15 08:26:32.203125,-20.1
2019-08-15 08:26:32.218750,-15.51
2019-08-15 08:26:32.234375,-7.32
2019-08-15 08:26:32.250000,-0.09
2019-08-15 08:26:32.265625,2.4
2019-08-15 08:26:32.281250,-0.63
2019-08-15 08:26:32.296875,-6.67
2019-08-15 08:26:32.312500,-11.51
2019-08-15 08:26:32.328125,-11.78
2019-08-15 08:26:32.343750,-6.95
2019-08-15 08:26:32.359375,0.4
2019-08-15 08:26:32.375000,6.23
2019-08-15 08:26:32.390625,7.49
2019-08-15 08:26:32.406250,3.94
2019-08-15 08:26:32.421875,-1.68
2019-08-15 08:26:32.437500,-5.25
2019-08-15 08:26:32.453125,-3.82
2019-08-15 08:26:32.468750,2.56
2019-08-15 08:26:32.484375,10.83
2019-08-15 08:26:32.500000,16.48
2019-08-15 08:26:32.515625,16.32
2019-08-15 08:26:32.531250,10.26
2019-08-15 08:26:32.546875,1.57
2019-08-15 08:26:32.562500,-4.93
2019-08-15 08:26:32.578125,-5.52
2019-08-15 08:26:32.593750,0.38
2019-08-15 08:26:32.609375,9.87
2019-08-15 08:26:32.625000,18.28
2019-08-15 08:26:32.640625,21.75
2019-08-15 08:26:32.656250,19.31
2019-08-15 08:26:32.671875,13.15
2019-08-15 08:26:32.687500,7.07
2019-08-15 08:26:32.703125,4.07
2019-08-15 08:26:32.718750,4.63
2019-08-15 08:26:32.734375,6.53
2019-08-15 08:26:32.750000,6.52
2019-08-15 08:26:32.765625,2.41
2019-08-15 08:26:32.781250,-5.12
2019-08-15 08:26:32.796875,-12.81
2019-08-15 08:26:32.812500,-16.61
2019-08-15 08:26:32.828125,-14.08
2019-08-15 08:26:32.843750,-6.13
2019-08-15 08:26:32.859375,3.21
2019-08-15 08:26:32.875000,8.83
2019-08-15 08:26:32.890625,7.31
2019-08-15 08:26:32.906250,-1.06
2019-08-15 08:26:32.921875,-12.39
2019-08-15 08:26:32.937500,-21.21
2019-08-15 08:26:32.953125,-23.47
2019-08-15 08:26:32.968750,-18.72
2019-08-15 08:26:32.984375,-10.13
2019-08-15 08:26:33.000000,-2.62
2019-08-15 08:26:33.015625,0.18
2019-08-15 08:26:33.031250,-2.04
2019-08-15 08:26:33.046875,-6.19
2019-08-15 08:26:33.062500,-7.9
2019-08-15 08:26:33.078125,-4.25
2019-08-15 08:26:33.093750,4.34
2019-08-15 08:26:33.109375,14.38
2019-08-15 08:26:33.125000,21.31
2019-08-15 08:26:33.140625,22.1
2019-08-15 08:26:33.156250,17.01
2019-08-15 08:26:33.171875,9.17
2019-08-15 08:26:33.187500,2.8
2019-08-15 08:26:33.203125,0.62
2019-08-15 08:26:33.218750,2.35
2019-08-15 08:26:33.234375,5.04
2019-08-15 08:26:33.250000,4.93
2019-08-15 08:26:33.265625,-0.18
2019-08-15 08:26:33.281250,-9.36
2019-08-15 08:26:33.296875,-19.0
2019-08-15 08:26:33.312500,-24.75
2019-08-15 08:26:33.328125,-24.06
2019-08-15 08:26:33.343750,-17.75
2019-08-15 08:26:33.359375,-9.71
2019-08-15 08:26:33.375000,-4.74
2019-08-15 08:26:33.390625,-5.79
2019-08-15 08:26:33.406250,-12.05
2019-08-15 08:26:33.421875,-19.45
2019-08-15 08:26:33.437500,-22.85
2019-08-15 08:26:33.453125,-19.21
2019-08-15 08:26:33.468750,-9.36
2019-08-15 08:26:33.484375,2.34
2019-08-15 08:26:33.500000,10.61
2019-08-15 08:26:33.515625,12.23
2019-08-15 08:26:33.531250,7.75
2019-08-15 08:26:33.546875,1.17
2019-08-15 08:26:33.562500,-2.63
2019-08-15 08:26:33.578125,-0.62
2019-08-15 08:26:33.593750,6.69
2019-08-15 08:26:33.609375,15.87
2019-08-15 08:26:33.625000,22.59
2019-08-15 08:26:33.640625,24.25
2019-08-15 08:26:33.656250,21.33
2019-08-15 08:26:33.671875,16.72
2019-08-15 08:26:33.687500,13.94
2019-08-15 08:26:33.703125,14.82
2019-08-15 08:26:33.718750,18.43
2019-08-15 08:26:33.734375,21.67
2019-08-15 08:26:33.750000,21.26
2019-08-15 08:26:33.765625,15.78
2019-08-15 08:26:33.781250,6.8
2019-08-15 08:26:33.796875,-1.88
2019-08-15 08:26:33.812500,-6.41
2019-08-15 08:26:33.828125,-5.07
2019-08-15 08:26:33.843750,0.5
2019-08-15 08:26:33.859375,6.31
2019-08-15 08:26:33.875000,8.06
2019-08-15 08:26:33.890625,3.7
2019-08-15 08:26:33.906250,-5.34
2019-08-15 08:26:33.921875,-15.02
2019-08-15 08:26:33.937500,-20.78
2019-08-15 08:26:33.953125,-20.24
2019-08-15 08:26:33.968750,-14.44
2019-08-15 08:26:33.984375,-7.27
2019-08-15 08:26:34.000000,-3.11
2019-08-15 08:26:34.015625,-4.2
2019-08-15 08:26:34.031250,-9.42
2019-08-15 08:26:34.046875,-14.98
2019-08-15 08:26:34.062500,-16.83
2019-08-15 08:26:34.078125,-13.21
2019-08-15 08:26:34.093750,-5.93
2019-08-15 08:26:34.109375,0.67
2019-08-15 08:26:34.125000,2.15
2019-08-15 08:26:34.140625,-3.22
2019-08-15 08:26:34.156250,-13.37
2019-08-15 08:26:34.171875,-23.41
2019-08-15 08:26:34.187500,-28.29
2019-08-15 08:26:34.203125,-25.5
2019-08-15 08:26:34.218750,-16.49
2019-08-15 08:26:34.234375,-5.67
2019-08-15 08:26:34.250000,2.12
2019-08-15 08:26:34.265625,4.33
2019-08-15 08:26:34.281250,1.88
2019-08-15 08:26:34.296875,-1.5
2019-08-15 08:26:34.312500,-1.69
2019-08-15 08:26:34.328125,3.44
2019-08-15 08:26:34.343750,12.65
2019-08-15 08:26:34.359375,22.12
2019-08-15 08:26:34.375000,27.65
2019-08-15 08:26:34.390625,27.07
2019-08-15 08:26:34.406250,21.43
2019-08-15 08:26:34.421875,14.22
2019-08-15 08:26:34.437500,9.29
2019-08-15 08:26:34.453125,8.4
2019-08-15 08:26:34.468750,10.41
2019-08-15 08:26:34.484375,11.96
2019-08-15 08:26:34.500000,9.79
2019-08-15 08:26:34.515625,2.91
2019-08-15 08:26:34.531250,-6.62
2019-08-15 08:26:34.546875,-14.81
2019-08-15 08:26:34.562500,-18.11
2019-08-15 08:26:34.578125,-15.55
2019-08-15 08:26:34.593750,-9.42
2019-08-15 08:26:34.609375,-3.86
2019-08-15 08:26:34.625000,-2.48
2019-08-15 08:26:34.640625,-6.14
2019-08-15 08:26:34.656250,-12.45
2019-08-15 08:26:34.671875,-17.28
2019-08-15 08:26:34.687500,-17.14
2019-08-15 08:26:34.703125,-11.26
2019-08-15 08:26:34.718750,-2.09
2019-08-15 08:26:34.734375,6.14
2019-08-15 08:26:34.750000,9.87
2019-08-15 08:26:34.765625,8.26
2019-08-15 08:26:34.781250,3.55
2019-08-15 08:26:34.796875,-0.3
2019-08-15 08:26:34.812500,-0.01
2019-08-15 08:26:34.828125,5.09
2019-08-15 08:26:34.843750,12.64
2019-08-15 08:26:34.859375,18.5
2019-08-15 08:26:34.875000,19.21
2019-08-15 08:26:34.890625,13.98
2019-08-15 08:26:34.906250,5.15
2019-08-15 08:26:34.921875,-3.0
2019-08-15 08:26:34.937500,-6.69
2019-08-15 08:26:34.953125,-4.7
2019-08-15 08:26:34.968750,1.04
2019-08-15 08:26:34.984375,6.58
2019-08-15 08:26:35.000000,8.14
2019-08-15 08:26:35.015625,4.43
2019-08-15 08:26:35.031250,-2.77
2019-08-15 08:26:35.046875,-9.45
2019-08-15 08:26:35.062500,-11.68
2019-08-15 08:26:35.078125,-7.92
2019-08-15 08:26:35.093750,0.14
2019-08-15 08:26:35.109375,8.55
2019-08-15 08:26:35.125000,13.26
2019-08-15 08:26:35.140625,12.31
2019-08-15 08:26:35.156250,6.87
2019-08-15 08:26:35.171875,0.3
2019-08-15 08:26:35.187500,-3.88
2019-08-15 08:26:35.203125,-4.06
2019-08-15 08:26:35.218750,-1.35
2019-08-15 08:26:35.234375,1.37
2019-08-15 08:26:35.250000,1.32
2019-08-15 08:26:35.265625,-2.16
2019-08-15 08:26:35.281250,-7.18
2019-08-15 08:26:35.296875,-10.46
2019-08-15 08:26:35.312500,-9.37
2019-08-15 08:26:35.328125,-3.62
2019-08-15 08:26:35.343750,4.46
2019-08-15 08:26:35.359375,11.24
2019-08-15 08:26:35.375000,13.85
2019-08-15 08:26:35.390625,11.75
2019-08-15 08:26:35.406250,7.03
2019-08-15 08:26:35.421875,3.04
2019-08-15 08:26:35.437500,2.33
2019-08-15 08:26:35.453125,5.11
2019-08-15 08:26:35.468750,9.01
2019-08-15 08:26:35.484375,10.6
2019-08-15 08:26:35.500000,7.37
2019-08-15 08:26:35.515625,-0.54
2019-08-15 08:26:35.531250,-10.28
2019-08-15 08:26:35.546875,-17.75
2019-08-15 08:26:35.562500,-19.8
2019-08-15 08:26:35.578125,-16.14
2019-08-15 08:26:35.593750,-9.55
2019-08-15 08:26:35.609375,-4.3
2019-08-15 08:26:35.625000,-3.84
2019-08-15 08:26:35.640625,-8.75
2019-08-15 08:26:35.656250,-16.23
2019-08-15 08:26:35.671875,-21.65
2019-08-15 08:26:35.687500,-21.13
2019-08-15 08:26:35.703125,-13.77
2019-08-15 08:26:35.718750,-2.24
2019-08-15 08:26:35.734375,8.62
2019-08-15 08:26:35.750000,14.49
2019-08-15 08:26:35.765625,13.9
2019-08-15 08:26:35.781250,8.92
2019-08-15 08:26:35.796875,3.85
2019-08-15 08:26:35.812500,2.48
2019-08-15 08:26:35.828125,5.8
2019-08-15 08:26:35.843750,11.34
2019-08-15 08:26:35.859375,14.78
2019-08-15 08:26:35.875000,12.57
2019-08-15 08:26:35.890625,4.27
2019-08-15 08:26:35.906250,-6.87
2019-08-15 08:26:35.921875,-15.7
2019-08-15 08:26:35.937500,-18.0
2019-08-15 08:26:35.953125,-12.91
2019-08-15 08:26:35.968750,-3.4
2019-08-15 08:26:35.984375,5.43
2019-08-15 08:26:36.000000,9.34
2019-08-15 08:26:36.015625,7.31
2019-08-15 08:26:36.031250,2.02
2019-08-15 08:26:36.046875,-1.87
2019-08-15 08:26:36.062500,-0.66
2019-08-15 08:26:36.078125,6.21
2019-08-15 08:26:36.093750,15.71
2019-08-15 08:26:36.109375,23.18
2019-08-15 08:26:36.125000,24.92
2019-08-15 08:26:36.140625,20.46
2019-08-15 08:26:36.156250,12.7
2019-08-15 08:26:36.171875,6.1
2019-08-15 08:26:36.187500,4.01
2019-08-15 08:26:36.203125,6.65
2019-08-15 08:26:36.218750,11.2
2019-08-15 08:26:36.234375,13.5
2019-08-15 08:26:36.250000,10.75
2019-08-15 08:26:36.265625,3.13
2019-08-15 08:26:36.281250,-6.21
2019-08-15 08:26:36.296875,-13.01
2019-08-15 08:26:36.312500,-14.52
2019-08-15 08:26:36.328125,-11.08
2019-08-15 08:26:36.343750,-6.03
2019-08-15 08:26:36.359375,-3.67
2019-08-15 08:26:36.375000,-6.76
2019-08-15 08:26:36.390625,-14.72
2019-08-15 08:26:36.406250,-23.84
2019-08-15 08:26:36.421875,-29.19
2019-08-15 08:26:36.437500,-27.51
2019-08-15 08:26:36.453125,-19.15
2019-08-15 08:26:36.468750,-7.93
2019-08-15 08:26:36.484375,0.85
2019-08-15 08:26:36.500000,3.31
2019-08-15 08:26:36.515625,-0.79
2019-08-15 08:26:36.531250,-7.99
2019-08-15 08:26:36.546875,-13.12
2019-08-15 08:26:36.562500,-12.37
2019-08-15 08:26:36.578125,-5.5
2019-08-15 08:26:36.593750,4.15
2019-08-15 08:26:36.609375,11.68
2019-08-15 08:26:36.625000,13.66
2019-08-15 08:26:36.640625,10.24
2019-08-15 08:26:36.656250,4.83
2019-08-15 08:26:36.671875,1.92
2019-08-15 08:26:36.687500,4.13
2019-08-15 08:26:36.703125,10.33
2019-08-15 08:26:36.718750,16.27
2019-08-15 08:26:36.734375,17.18
2019-08-15 08:26:36.750000,10.72
2019-08-15 08:26:36.765625,-1.3
2019-08-15 08:26:36.781250,-13.76
2019-08-15 08:26:36.796875,-20.95
2019-08-15 08:26:36.812500,-19.62
2019-08-15 08:26:36.828125,-10.78
2019-08-15 08:26:36.843750,1.03
2019-08-15 08:26:36.859375,10.19
2019-08-15 08:26:36.875000,13.12
2019-08-15 08:26:36.890625,9.97
2019-08-15 08:26:36.906250,4.12
2019-08-15 08:26:36.921875,0.01
2019-08-15 08:26:36.937500,0.3
2019-08-15 08:26:36.953125,4.35
2019-08-15 08:26:36.968750,8.7
2019-08-15 08:26:36.984375,9.27
2019-08-15 08:26:37.000000,4.11
2019-08-15 08:26:37.015625,-5.18
2019-08-15 08:26:37.031250,-14.05
2019-08-15 08:26:37.046875,-17.54
2019-08-15 08:26:37.062500,-13.18
2019-08-15 08:26:37.078125,-2.54
2019-08-15 08:26:37.093750,9.61
2019-08-15 08:26:37.109375,17.78
2019-08-15 08:26:37.125000,18.82
2019-08-15 08:26:37.140625,13.56
2019-08-15 08:26:37.156250,6.04
2019-08-15 08:26:37.171875,1.03
2019-08-15 08:26:37.187500,1.33
2019-08-15 08:26:37.203125,6.05
2019-08-15 08:26:37.218750,11.39
2019-08-15 08:26:37.234375,12.93
2019-08-15 08:26:37.250000,8.38
2019-08-15 08:26:37.265625,-1.07
2019-08-15 08:26:37.281250,-11.32
2019-08-15 08:26:37.296875,-17.68
2019-08-15 08:26:37.312500,-17.47
2019-08-15 08:26:37.328125,-11.58
2019-08-15 08:26:37.343750,-3.8
2019-08-15 08:26:37.359375,1.23
2019-08-15 08:26:37.375000,0.81
2019-08-15 08:26:37.390625,-4.35
2019-08-15 08:26:37.406250,-10.57
2019-08-15 08:26:37.421875,-13.39
2019-08-15 08:26:37.437500,-10.31
2019-08-15 08:26:37.453125,-2.47
2019-08-15 08:26:37.468750,5.95
2019-08-15 08:26:37.484375,10.09
2019-08-15 08:26:37.500000,7.15
2019-08-15 08:26:37.515625,-1.76
2019-08-15 08:26:37.531250,-12.26
2019-08-15 08:26:37.546875,-18.93
2019-08-15 08:26:37.562500,-18.38
2019-08-15 08:26:37.578125,-11.08
2019-08-15 08:26:37.593750,-0.91
2019-08-15 08:26:37.609375,7.08
2019-08-15 08:26:37.625000,9.66
2019-08-15 08:26:37.640625,7.12
2019-08-15 08:26:37.656250,2.85
2019-08-15 08:26:37.671875,0.99
2019-08-15 08:26:37.687500,3.75
2019-08-15 08:26:37.703125,9.79
2019-08-15 08:26:37.718750,15.09
2019-08-15 08:26:37.734375,15.37
2019-08-15 08:26:37.750000,8.94
2019-08-15 08:26:37.765625,-2.15
2019-08-15 08:26:37.781250,-13.01
2019-08-15 08:26:37.796875,-18.6
2019-08-15 08:26:37.812500,-16.49
2019-08-15 08:26:37.828125,-8.15
2019-08-15 08:26:37.843750,2.02
2019-08-15 08:26:37.859375,9.21
2019-08-15 08:26:37.875000,10.75
2019-08-15 08:26:37.890625,7.3
2019-08-15 08:26:37.906250,2.06
2019-08-15 08:26:37.921875,-1.42
2019-08-15 08:26:37.937500,-1.4
2019-08-15 08:26:37.953125,1.06
2019-08-15 08:26:37.968750,3.06
2019-08-15 08:26:37.984375,1.91
2019-08-15 08:26:38.000000,-2.96
2019-08-15 08:26:38.015625,-9.42
2019-08-15 08:26:38.031250,-13.78
2019-08-15 08:26:38.046875,-12.98
2019-08-15 08:26:38.062500,-6.48
2019-08-15 08:26:38.078125,3.2
2019-08-15 08:26:38.093750,11.64
2019-08-15 08:26:38.109375,14.94
2019-08-15 08:26:38.125000,11.8
2019-08-15 08:26:38.140625,4.06
2019-08-15 08:26:38.156250,-4.27
2019-08-15 08:26:38.171875,-9.37
2019-08-15 08:26:38.187500,-9.51
2019-08-15 08:26:38.203125,-5.94
2019-08-15 08:26:38.218750,-1.84
2019-08-15 08:26:38.234375,-0.42
2019-08-15 08:26:38.250000,-2.83
2019-08-15 08:26:38.265625,-7.57
2019-08-15 08:26:38.281250,-11.24
2019-08-15 08:26:38.296875,-10.67
2019-08-15 08:26:38.312500,-4.87
2019-08-15 08:26:38.328125,4.13
2019-08-15 08:26:38.343750,12.36
2019-08-15 08:26:38.359375,16.02
2019-08-15 08:26:38.375000,13.72
2019-08-15 08:26:38.390625,7.26
2019-08-15 08:26:38.406250,0.61
2019-08-15 08:26:38.421875,-2.42
2019-08-15 08:26:38.437500,-0.39
2019-08-15 08:26:38.453125,4.96
2019-08-15 08:26:38.468750,9.78
2019-08-15 08:26:38.484375,10.42
2019-08-15 08:26:38.500000,5.79
2019-08-15 08:26:38.515625,-2.04
2019-08-15 08:26:38.531250,-8.89
2019-08-15 08:26:38.546875,-10.91
2019-08-15 08:26:38.562500,-6.8
2019-08-15 08:26:38.578125,1.43
2019-08-15 08:26:38.593750,9.62
2019-08-15 08:26:38.609375,13.86
2019-08-15 08:26:38.625000,12.75
2019-08-15 08:26:38.640625,7.96
2019-08-15 08:26:38.656250,3.22
2019-08-15 08:26:38.671875,1.84
2019-08-15 08:26:38.687500,4.66
2019-08-15 08:26:38.703125,9.49
2019-08-15 08:26:38.718750,12.44
2019-08-15 08:26:38.734375,10.32
2019-08-15 08:26:38.750000,2.81
2019-08-15 08:26:38.765625,-7.15
2019-08-15 08:26:38.781250,-14.82
2019-08-15 08:26:38.796875,-16.36
2019-08-15 08:26:38.812500,-10.97
2019-08-15 08:26:38.828125,-1.47
2019-08-15 08:26:38.843750,7.5
2019-08-15 08:26:38.859375,11.9
2019-08-15 08:26:38.875000,10.6
2019-08-15 08:26:38.890625,5.75
2019-08-15 08:26:38.906250,1.26
2019-08-15 08:26:38.921875,0.36
2019-08-15 08:26:38.937500,3.52
2019-08-15 08:26:38.953125,8.18
2019-08-15 08:26:38.968750,10.37
2019-08-15 08:26:38.984375,7.06
2019-08-15 08:26:39.000000,-1.72
2019-08-15 08:26:39.015625,-12.7
2019-08-15 08:26:39.031250,-20.94
2019-08-15 08:26:39.046875,-22.63
2019-08-15 08:26:39.062500,-17.08
2019-08-15 08:26:39.078125,-7.24
2019-08-15 08:26:39.093750,2.02
2019-08-15 08:26:39.109375,6.63
2019-08-15 08:26:39.125000,5.57
2019-08-15 08:26:39.140625,1.17
2019-08-15 08:26:39.156250,-2.38
2019-08-15 08:26:39.171875,-1.84
2019-08-15 08:26:39.187500,3.06
2019-08-15 08:26:39.203125,9.43
2019-08-15 08:26:39.218750,12.95
2019-08-15 08:26:39.234375,10.61
2019-08-15 08:26:39.250000,2.64
2019-08-15 08:26:39.265625,-7.58
2019-08-15 08:26:39.281250,-15.39
2019-08-15 08:26:39.296875,-17.55
2019-08-15 08:26:39.312500,-14.04
2019-08-15 08:26:39.328125,-8.03
2019-08-15 08:26:39.343750,-3.84
2019-08-15 08:26:39.359375,-4.46
2019-08-15 08:26:39.375000,-9.59
2019-08-15 08:26:39.390625,-15.87
2019-08-15 08:26:39.406250,-18.79
2019-08-15 08:26:39.421875,-15.38
2019-08-15 08:26:39.437500,-6.07
2019-08-15 08:26:39.453125,5.32
2019-08-15 08:26:39.468750,13.74
2019-08-15 08:26:39.484375,15.59
2019-08-15 08:26:39.500000,10.88
2019-08-15 08:26:39.515625,3.06
2019-08-15 08:26:39.531250,-2.94
2019-08-15 08:26:39.546875,-3.61
2019-08-15 08:26:39.562500,1.17
2019-08-15 08:26:39.578125,8.09
2019-08-15 08:26:39.593750,12.42
2019-08-15 08:26:39.609375,10.94
2019-08-15 08:26:39.625000,3.9
2019-08-15 08:26:39.640625,-5.04
2019-08-15 08:26:39.656250,-10.83
2019-08-15 08:26:39.671875,-9.9
2019-08-15 08:26:39.687500,-2.23
2019-08-15 08:26:39.703125,8.7
2019-08-15 08:26:39.718750,17.68
2019-08-15 08:26:39.734375,20.73
2019-08-15 08:26:39.750000,17.1
2019-08-15 08:26:39.765625,9.54
2019-08-15 08:26:39.781250,2.51
2019-08-15 08:26:39.796875,-0.48
2019-08-15 08:26:39.812500,1.11
2019-08-15 08:26:39.828125,4.74
2019-08-15 08:26:39.843750,6.38
2019-08-15 08:26:39.859375,3.24
2019-08-15 08:26:39.875000,-4.37
2019-08-15 08:26:39.890625,-12.87
2019-08-15 08:26:39.906250,-17.42
2019-08-15 08:26:39.921875,-14.73
2019-08-15 08:26:39.937500,-5.21
2019-08-15 08:26:39.953125,6.89
2019-08-15 08:26:39.968750,15.62
2019-08-15 08:26:39.984375,16.56
2019-08-15 08:26:40.000000,9.22
2019-08-15 08:26:40.015625,-2.64
2019-08-15 08:26:40.031250,-13.18
2019-08-15 08:26:40.046875,-17.8
2019-08-15 08:26:40.062500,-15.55
2019-08-15 08:26:40.078125,-9.39
2019-08-15 08:26:40.093750,-4.2
2019-08-15 08:26:40.109375,-3.43
2019-08-15 08:26:40.125000,-7.06
2019-08-15 08:26:40.140625,-11.54
2019-08-15 08:26:40.156250,-12.21
2019-08-15 08:26:40.171875,-6.31
2019-08-15 08:26:40.187500,5.01
2019-08-15 08:26:40.203125,17.05
2019-08-15 08:26:40.218750,24.14
2019-08-15 08:26:40.234375,22.81
2019-08-15 08:26:40.250000,13.76
2019-08-15 08:26:40.265625,1.4
2019-08-15 08:26:40.281250,-8.63
2019-08-15 08:26:40.296875,-12.51
2019-08-15 08:26:40.312500,-10.27
2019-08-15 08:26:40.328125,-5.25
2019-08-15 08:26:40.343750,-1.88
2019-08-15 08:26:40.359375,-2.76
2019-08-15 08:26:40.375000,-7.14
2019-08-15 08:26:40.390625,-11.38
2019-08-15 08:26:40.406250,-11.49
2019-08-15 08:26:40.421875,-5.79
2019-08-15 08:26:40.437500,3.62
2019-08-15 08:26:40.453125,11.94
2019-08-15 08:26:40.468750,14.4
2019-08-15 08:26:40.484375,9.19
2019-08-15 08:26:40.500000,-1.24
2019-08-15 08:26:40.515625,-11.42
2019-08-15 08:26:40.531250,-15.76
2019-08-15 08:26:40.546875,-11.74
2019-08-15 08:26:40.562500,-1.17
2019-08-15 08:26:40.578125,10.88
2019-08-15 08:26:40.593750,18.91
2019-08-15 08:26:40.609375,20.01
2019-08-15 08:26:40.625000,15.14
2019-08-15 08:26:40.640625,8.25
2019-08-15 08:26:40.656250,3.73
2019-08-15 08:26:40.671875,3.81
2019-08-15 08:26:40.687500,7.41
2019-08-15 08:26:40.703125,10.97
2019-08-15 08:26:40.718750,10.63
2019-08-15 08:26:40.734375,4.78
2019-08-15 08:26:40.750000,-4.98
2019-08-15 08:26:40.765625,-14.5
2019-08-15 08:26:40.781250,-19.37
2019-08-15 08:26:40.796875,-17.36
2019-08-15 08:26:40.812500,-9.76
2019-08-15 08:26:40.828125,-0.68
2019-08-15 08:26:40.843750,5.24
2019-08-15 08:26:40.859375,5.4
2019-08-15 08:26:40.875000,0.68
2019-08-15 08:26:40.890625,-5.23
2019-08-15 08:26:40.906250,-8.16
2019-08-15 08:26:40.921875,-6.01
2019-08-15 08:26:40.937500,-0.04
2019-08-15 08:26:40.953125,5.81
2019-08-15 08:26:40.968750,7.41
2019-08-15 08:26:40.984375,3.01
2019-08-15 08:26:41.000000,-5.45
2019-08-15 08:26:41.015625,-13.4
2019-08-15 08:26:41.031250,-16.15
2019-08-15 08:26:41.046875,-11.54
2019-08-15 08:26:41.062500,-1.26
2019-08-15 08:26:41.078125,10.04
2019-08-15 08:26:41.093750,17.39
2019-08-15 08:26:41.109375,18.13
2019-08-15 08:26:41.125000,13.17
2019-08-15 08:26:41.140625,6.28
2019-08-15 08:26:41.156250,1.69
2019-08-15 08:26:41.171875,1.51
2019-08-15 08:26:41.187500,4.63
2019-08-15 08:26:41.203125,7.49
2019-08-15 08:26:41.218750,6.41
2019-08-15 08:26:41.234375,0.13
2019-08-15 08:26:41.250000,-9.33
2019-08-15 08:26:41.265625,-17.55
2019-08-15 08:26:41.281250,-20.22
2019-08-15 08:26:41.296875,-15.65
2019-08-15 08:26:41.312500,-5.8
2019-08-15 08:26:41.328125,4.7
2019-08-15 08:26:41.343750,11.15
2019-08-15 08:26:41.359375,11.28
2019-08-15 08:26:41.375000,6.46
2019-08-15 08:26:41.390625,0.69
2019-08-15 08:26:41.406250,-1.81
2019-08-15 08:26:41.421875,0.85
2019-08-15 08:26:41.437500,7.08
2019-08-15 08:26:41.453125,12.83
2019-08-15 08:26:41.468750,13.91
2019-08-15 08:26:41.484375,8.64
2019-08-15 08:26:41.500000,-1.08
2019-08-15 08:26:41.515625,-10.79
2019-08-15 08:26:41.531250,-16.01
2019-08-15 08:26:41.546875,-14.75
2019-08-15 08:26:41.562500,-8.58
2019-08-15 08:26:41.578125,-1.58
2019-08-15 08:26:41.593750,2.19
2019-08-15 08:26:41.609375,1.1
2019-08-15 08:26:41.625000,-3.2
2019-08-15 08:26:41.640625,-7.0
2019-08-15 08:26:41.656250,-6.99
2019-08-15 08:26:41.671875,-2.4
2019-08-15 08:26:41.687500,4.28
2019-08-15 08:26:41.703125,8.81
2019-08-15 08:26:41.718750,7.66
2019-08-15 08:26:41.734375,0.39
2019-08-15 08:26:41.750000,-9.85
2019-08-15 08:26:41.765625,-17.91
2019-08-15 08:26:41.781250,-19.42
2019-08-15 08:26:41.796875,-13.31
2019-08-15 08:26:41.812500,-2.4
2019-08-15 08:26:41.828125,8.12
2019-08-15 08:26:41.843750,13.59
2019-08-15 08:26:41.859375,12.43
2019-08-15 08:26:41.875000,6.83
2019-08-15 08:26:41.890625,1.26
2019-08-15 08:26:41.906250,-0.34
2019-08-15 08:26:41.921875,3.04
2019-08-15 08:26:41.937500,8.97
2019-08-15 08:26:41.953125,13.1
2019-08-15 08:26:41.968750,11.95
2019-08-15 08:26:41.984375,5.12
2019-08-15 08:26:42.000000,-4.29
2019-08-15 08:26:42.015625,-11.46
2019-08-15 08:26:42.031250,-12.55
2019-08-15 08:26:42.046875,-6.86
2019-08-15 08:26:42.062500,2.77
2019-08-15 08:26:42.078125,11.63
2019-08-15 08:26:42.093750,15.66
2019-08-15 08:26:42.109375,13.54
2019-08-15 08:26:42.125000,7.18
2019-08-15 08:26:42.140625,0.45
2019-08-15 08:26:42.156250,-3.15
2019-08-15 08:26:42.171875,-2.43
2019-08-15 08:26:42.187500,0.86
2019-08-15 08:26:42.203125,3.24
2019-08-15 08:26:42.218750,1.65
2019-08-15 08:26:42.234375,-4.52
2019-08-15 08:26:42.250000,-12.95
2019-08-15 08:26:42.265625,-19.6
2019-08-15 08:26:42.281250,-21.01
2019-08-15 08:26:42.296875,-16.39
2019-08-15 08:26:42.312500,-8.06
2019-08-15 08:26:42.328125,-0.24
2019-08-15 08:26:42.343750,3.37
2019-08-15 08:26:42.359375,1.73
2019-08-15 08:26:42.375000,-3.01
2019-08-15 08:26:42.390625,-6.76
2019-08-15 08:26:42.406250,-5.98
2019-08-15 08:26:42.421875,0.08
2019-08-15 08:26:42.437500,8.77
2019-08-15 08:26:42.453125,15.44
2019-08-15 08:26:42.468750,16.09
2019-08-15 08:26:42.484375,9.75
2019-08-15 08:26:42.500000,-0.75
2019-08-15 08:26:42.515625,-10.28
2019-08-15 08:26:42.531250,-14.11
2019-08-15 08:26:42.546875,-10.57
2019-08-15 08:26:42.562500,-1.8
2019-08-15 08:26:42.578125,7.51
2019-08-15 08:26:42.593750,12.84
2019-08-15 08:26:42.609375,12.43
2019-08-15 08:26:42.625000,7.97
2019-08-15 08:26:42.640625,3.3
2019-08-15 08:26:42.656250,1.73
2019-08-15 08:26:42.671875,3.79
2019-08-15 08:26:42.687500,6.89
2019-08-15 08:26:42.703125,7.09
2019-08-15 08:26:42.718750,1.73
2019-08-15 08:26:42.734375,-8.44
2019-08-15 08:26:42.750000,-19.4
2019-08-15 08:26:42.765625,-25.83
2019-08-15 08:26:42.781250,-24.08
2019-08-15 08:26:42.796875,-14.25
2019-08-15 08:26:42.812500,-0.22
2019-08-15 08:26:42.828125,12.18
2019-08-15 08:26:42.843750,18.15
2019-08-15 08:26:42.859375,16.21
2019-08-15 08:26:42.875000,8.59
2019-08-15 08:26:42.890625,-0.1
2019-08-15 08:26:42.906250,-5.53
2019-08-15 08:26:42.921875,-5.8
2019-08-15 08:26:42.937500,-2.18
2019-08-15 08:26:42.953125,2.08
2019-08-15 08:26:42.968750,3.96
2019-08-15 08:26:42.984375,2.5
2019-08-15 08:26:43.000000,-0.61
2019-08-15 08:26:43.015625,-2.3
2019-08-15 08:26:43.031250,-0.26
2019-08-15 08:26:43.046875,5.28
2019-08-15 08:26:43.062500,11.33
2019-08-15 08:26:43.078125,13.91
2019-08-15 08:26:43.093750,10.42
2019-08-15 08:26:43.109375,1.67
2019-08-15 08:26:43.125000,-8.26
2019-08-15 08:26:43.140625,-14.04
2019-08-15 08:26:43.156250,-12.12
2019-08-15 08:26:43.171875,-2.88
2019-08-15 08:26:43.187500,9.27
2019-08-15 08:26:43.203125,18.18
2019-08-15 08:26:43.218750,19.19
2019-08-15 08:26:43.234375,11.7
2019-08-15 08:26:43.250000,-0.58
2019-08-15 08:26:43.265625,-11.71
2019-08-15 08:26:43.281250,-16.81
2019-08-15 08:26:43.296875,-14.49
2019-08-15 08:26:43.312500,-7.37
2019-08-15 08:26:43.328125,-0.12
2019-08-15 08:26:43.343750,3.28
2019-08-15 08:26:43.359375,1.98
2019-08-15 08:26:43.375000,-1.78
2019-08-15 08:26:43.390625,-4.23
2019-08-15 08:26:43.406250,-2.75
2019-08-15 08:26:43.421875,2.39
2019-08-15 08:26:43.437500,8.09
2019-08-15 08:26:43.453125,10.26
2019-08-15 08:26:43.468750,6.51
2019-08-15 08:26:43.484375,-2.35
2019-08-15 08:26:43.500000,-12.41
2019-08-15 08:26:43.515625,-18.68
2019-08-15 08:26:43.531250,-17.88
2019-08-15 08:26:43.546875,-10.16
2019-08-15 08:26:43.562500,0.84
2019-08-15 08:26:43.578125,10.11
2019-08-15 08:26:43.593750,13.86
2019-08-15 08:26:43.609375,11.64
2019-08-15 08:26:43.625000,6.18
2019-08-15 08:26:43.640625,1.66
2019-08-15 08:26:43.656250,0.93
2019-08-15 08:26:43.671875,3.72
2019-08-15 08:26:43.687500,6.91
2019-08-15 08:26:43.703125,6.54
2019-08-15 08:26:43.718750,0.48
2019-08-15 08:26:43.734375,-9.86
2019-08-15 08:26:43.750000,-20.02
2019-08-15 08:26:43.765625,-24.86
2019-08-15 08:26:43.781250,-21.4
2019-08-15 08:26:43.796875,-10.69
2019-08-15 08:26:43.812500,2.71
2019-08-15 08:26:43.828125,13.12
2019-08-15 08:26:43.843750,16.5
2019-08-15 08:26:43.859375,12.64
2019-08-15 08:26:43.875000,4.71
2019-08-15 08:26:43.890625,-2.53
2019-08-15 08:26:43.906250,-5.66
2019-08-15 08:26:43.921875,-4.19
2019-08-15 08:26:43.937500,-0.51
2019-08-15 08:26:43.953125,1.91
2019-08-15 08:26:43.968750,0.9
2019-08-15 08:26:43.984375,-3.01
2019-08-15 08:26:44.000000,-6.87
2019-08-15 08:26:44.015625,-7.18
2019-08-15 08:26:44.031250,-2.26
2019-08-15 08:26:44.046875,6.48
2019-08-15 08:26:44.062500,15.0
2019-08-15 08:26:44.078125,18.75
2019-08-15 08:26:44.093750,15.24
2019-08-15 08:26:44.109375,5.69
2019-08-15 08:26:44.125000,-5.38
2019-08-15 08:26:44.140625,-12.36
2019-08-15 08:26:44.156250,-11.6
2019-08-15 08:26:44.171875,-3.32
2019-08-15 08:26:44.187500,8.37
2019-08-15 08:26:44.203125,17.81
2019-08-15 08:26:44.218750,20.67
2019-08-15 08:26:44.234375,16.42
2019-08-15 08:26:44.250000,8.24
2019-08-15 08:26:44.265625,1.03
2019-08-15 08:26:44.281250,-1.57
2019-08-15 08:26:44.296875,0.65
2019-08-15 08:26:44.312500,4.55
2019-08-15 08:26:44.328125,5.78
2019-08-15 08:26:44.343750,1.65
2019-08-15 08:26:44.359375,-6.91
2019-08-15 08:26:44.375000,-15.67
2019-08-15 08:26:44.390625,-19.49
2019-08-15 08:26:44.406250,-15.34
2019-08-15 08:26:44.421875,-4.24
2019-08-15 08:26:44.437500,8.96
2019-08-15 08:26:44.453125,18.14
2019-08-15 08:26:44.468750,19.12
2019-08-15 08:26:44.484375,11.85
2019-08-15 08:26:44.500000,0.26
2019-08-15 08:26:44.515625,-10.02
2019-08-15 08:26:44.531250,-14.81
2019-08-15 08:26:44.546875,-13.43
2019-08-15 08:26:44.562500,-8.6
2019-08-15 08:26:44.578125,-4.33
2019-08-15 08:26:44.593750,-3.35
2019-08-15 08:26:44.609375,-5.47
2019-08-15 08:26:44.625000,-8.02
2019-08-15 08:26:44.640625,-7.94
2019-08-15 08:26:44.656250,-4.03
2019-08-15 08:26:44.671875,2.14
2019-08-15 08:26:44.687500,7.04
2019-08-15 08:26:44.703125,7.63
2019-08-15 08:26:44.718750,3.31
2019-08-15 08:26:44.734375,-3.42
2019-08-15 08:26:44.750000,-8.32
2019-08-15 08:26:44.765625,-7.92
2019-08-15 08:26:44.781250,-1.58
2019-08-15 08:26:44.796875,7.95
2019-08-15 08:26:44.812500,15.93
2019-08-15 08:26:44.828125,18.18
2019-08-15 08:26:44.843750,13.38
2019-08-15 08:26:44.859375,3.82
2019-08-15 08:26:44.875000,-5.76
2019-08-15 08:26:44.890625,-10.67
2019-08-15 08:26:44.906250,-8.69
2019-08-15 08:26:44.921875,-1.21
2019-08-15 08:26:44.937500,7.64
2019-08-15 08:26:44.953125,13.17
2019-08-15 08:26:44.968750,12.66
2019-08-15 08:26:44.984375,6.64
2019-08-15 08:26:45.000000,-1.57
2019-08-15 08:26:45.015625,-7.8
2019-08-15 08:26:45.031250,-9.51
2019-08-15 08:26:45.046875,-7.01
2019-08-15 08:26:45.062500,-3.06
2019-08-15 08:26:45.078125,-0.98
2019-08-15 08:26:45.093750,-2.44
2019-08-15 08:26:45.109375,-6.38
2019-08-15 08:26:45.125000,-9.67
2019-08-15 08:26:45.140625,-9.25
2019-08-15 08:26:45.156250,-4.25
2019-08-15 08:26:45.171875,3.17
2019-08-15 08:26:45.187500,8.83
2019-08-15 08:26:45.203125,9.08
2019-08-15 08:26:45.218750,3.07
2019-08-15 08:26:45.234375,-6.4
2019-08-15 08:26:45.250000,-14.22
2019-08-15 08:26:45.265625,-15.74
2019-08-15 08:26:45.281250,-9.36
2019-08-15 08:26:45.296875,2.41
2019-08-15 08:26:45.312500,14.33
2019-08-15 08:26:45.328125,21.08
2019-08-15 08:26:45.343750,20.11
2019-08-15 08:26:45.359375,12.75
2019-08-15 08:26:45.375000,3.26
2019-08-15 08:26:45.390625,-3.71
2019-08-15 08:26:45.406250,-5.62
2019-08-15 08:26:45.421875,-3.2
2019-08-15 08:26:45.437500,0.26
2019-08-15 08:26:45.453125,1.23
2019-08-15 08:26:45.468750,-1.82
2019-08-15 08:26:45.484375,-7.46
2019-08-15 08:26:45.500000,-12.18
2019-08-15 08:26:45.515625,-12.55
2019-08-15 08:26:45.531250,-7.4
2019-08-15 08:26:45.546875,1.3
2019-08-15 08:26:45.562500,9.48
2019-08-15 08:26:45.578125,13.31
2019-08-15 08:26:45.593750,11.41
2019-08-15 08:26:45.609375,5.61
2019-08-15 08:26:45.625000,-0.09
2019-08-15 08:26:45.640625,-1.96
2019-08-15 08:26:45.656250,1.23
2019-08-15 08:26:45.671875,7.45
2019-08-15 08:26:45.687500,12.6
2019-08-15 08:26:45.703125,12.88
2019-08-15 08:26:45.718750,7.08
2019-08-15 08:26:45.734375,-2.66
2019-08-15 08:26:45.750000,-12.1
2019-08-15 08:26:45.765625,-17.28
2019-08-15 08:26:45.781250,-16.64
2019-08-15 08:26:45.796875,-11.85
2019-08-15 08:26:45.812500,-6.71
2019-08-15 08:26:45.828125,-4.75
2019-08-15 08:26:45.843750,-7.19
2019-08-15 08:26:45.859375,-12.21
2019-08-15 08:26:45.875000,-16.02
2019-08-15 08:26:45.890625,-15.21
2019-08-15 08:26:45.906250,-8.85
2019-08-15 08:26:45.921875,0.97
2019-08-15 08:26:45.937500,10.05
2019-08-15 08:26:45.953125,14.51
2019-08-15 08:26:45.968750,12.87
2019-08-15 08:26:45.984375,6.86
2019-08-15 08:26:46.000000,0.22
2019-08-15 08:26:46.015625,-3.43
2019-08-15 08:26:46.031250,-2.78
2019-08-15 08:26:46.046875,0.51
2019-08-15 08:26:46.062500,2.97
2019-08-15 08:26:46.078125,1.59
2019-08-15 08:26:46.093750,-4.05
2019-08-15 08:26:46.109375,-11.32
2019-08-15 08:26:46.125000,-15.85
2019-08-15 08:26:46.140625,-14.14
2019-08-15 08:26:46.156250,-5.72
2019-08-15 08:26:46.171875,6.3
2019-08-15 08:26:46.187500,16.67
2019-08-15 08:26:46.203125,20.81
2019-08-15 08:26:46.218750,17.21
2019-08-15 08:26:46.234375,8.35
2019-08-15 08:26:46.250000,-0.75
2019-08-15 08:26:46.265625,-5.32
2019-08-15 08:26:46.281250,-3.39
2019-08-15 08:26:46.296875,3.17
2019-08-15 08:26:46.312500,9.78
2019-08-15 08:26:46.328125,11.81
2019-08-15 08:26:46.343750,7.22
2019-08-15 08:26:46.359375,-2.22
2019-08-15 08:26:46.375000,-11.88
2019-08-15 08:26:46.390625,-16.97
2019-08-15 08:26:46.406250,-15.24
2019-08-15 08:26:46.421875,-8.22
2019-08-15 08:26:46.437500,-0.29
2019-08-15 08:26:46.453125,4.05
2019-08-15 08:26:46.468750,2.85
2019-08-15 08:26:46.484375,-2.12
2019-08-15 08:26:46.500000,-6.64
2019-08-15 08:26:46.515625,-6.69
2019-08-15 08:26:46.531250,-0.99
2019-08-15 08:26:46.546875,8.11
2019-08-15 08:26:46.562500,16.1
2019-08-15 08:26:46.578125,18.95
2019-08-15 08:26:46.593750,15.57
2019-08-15 08:26:46.609375,8.34
2019-08-15 08:26:46.625000,1.66
2019-08-15 08:26:46.640625,-0.72
2019-08-15 08:26:46.656250,2.04
2019-08-15 08:26:46.671875,7.48
2019-08-15 08:26:46.687500,11.24
2019-08-15 08:26:46.703125,9.76
2019-08-15 08:26:46.718750,2.43
2019-08-15 08:26:46.734375,-8.01
2019-08-15 08:26:46.750000,-16.96
2019-08-15 08:26:46.765625,-20.48
2019-08-15 08:26:46.781250,-17.49
2019-08-15 08:26:46.796875,-10.24
2019-08-15 08:26:46.812500,-2.87
2019-08-15 08:26:46.828125,0.93
2019-08-15 08:26:46.843750,-0.01
2019-08-15 08:26:46.859375,-4.01
2019-08-15 08:26:46.875000,-7.85
2019-08-15 08:26:46.890625,-8.96
2019-08-15 08:26:46.906250,-7.02
2019-08-15 08:26:46.921875,-3.97
2019-08-15 08:26:46.937500,-2.58
2019-08-15 08:26:46.953125,-4.43
2019-08-15 08:26:46.968750,-8.73
2019-08-15 08:26:46.984375,-12.61
2019-08-15 08:26:47.000000,-12.78
2019-08-15 08:26:47.015625,-7.59
2019-08-15 08:26:47.031250,1.86
2019-08-15 08:26:47.046875,12.04
2019-08-15 08:26:47.062500,18.75
2019-08-15 08:26:47.078125,19.17
2019-08-15 08:26:47.093750,13.49
2019-08-15 08:26:47.109375,4.69
2019-08-15 08:26:47.125000,-2.91
2019-08-15 08:26:47.140625,-5.88
2019-08-15 08:26:47.156250,-3.28
2019-08-15 08:26:47.171875,3.02
2019-08-15 08:26:47.187500,9.49
2019-08-15 08:26:47.203125,12.96
2019-08-15 08:26:47.218750,12.31
2019-08-15 08:26:47.234375,8.86
2019-08-15 08:26:47.250000,5.32
2019-08-15 08:26:47.265625,4.07
2019-08-15 08:26:47.281250,5.51
2019-08-15 08:26:47.296875,7.85
2019-08-15 08:26:47.312500,8.16
2019-08-15 08:26:47.328125,4.43
2019-08-15 08:26:47.343750,-2.84
2019-08-15 08:26:47.359375,-10.48
2019-08-15 08:26:47.375000,-14.18
2019-08-15 08:26:47.390625,-10.98
2019-08-15 08:26:47.406250,-1.27
2019-08-15 08:26:47.421875,11.09
2019-08-15 08:26:47.437500,20.44
2019-08-15 08:26:47.453125,22.42
2019-08-15 08:26:47.468750,16.25
2019-08-15 08:26:47.484375,5.22
2019-08-15 08:26:47.500000,-5.24
2019-08-15 08:26:47.515625,-10.57
2019-08-15 08:26:47.531250,-9.63
2019-08-15 08:26:47.546875,-5.0
2019-08-15 08:26:47.562500,-1.11
2019-08-15 08:26:47.578125,-1.28
2019-08-15 08:26:47.593750,-5.55
2019-08-15 08:26:47.609375,-10.75
2019-08-15 08:26:47.625000,-12.63
2019-08-15 08:26:47.640625,-8.71
2019-08-15 08:26:47.656250,-0.06
2019-08-15 08:26:47.671875,9.09
2019-08-15 08:26:47.687500,13.76
2019-08-15 08:26:47.703125,11.01
2019-08-15 08:26:47.718750,1.76
2019-08-15 08:26:47.734375,-9.7
2019-08-15 08:26:47.750000,-18.0
2019-08-15 08:26:47.765625,-19.5
2019-08-15 08:26:47.781250,-14.16
2019-08-15 08:26:47.796875,-5.32
2019-08-15 08:26:47.812500,2.34
2019-08-15 08:26:47.828125,5.35
2019-08-15 08:26:47.843750,3.31
2019-08-15 08:26:47.859375,-1.2
2019-08-15 08:26:47.875000,-4.4
2019-08-15 08:26:47.890625,-3.77
2019-08-15 08:26:47.906250,0.4
2019-08-15 08:26:47.921875,5.1
2019-08-15 08:26:47.937500,6.54
2019-08-15 08:26:47.953125,2.7
2019-08-15 08:26:47.968750,-5.19
2019-08-15 08:26:47.984375,-12.94
2019-08-15 08:26:48.000000,-15.77
2019-08-15 08:26:48.015625,-11.03
2019-08-15 08:26:48.031250,0.02
2019-08-15 08:26:48.046875,12.68
2019-08-15 08:26:48.062500,21.15
2019-08-15 08:26:48.078125,21.64
2019-08-15 08:26:48.093750,14.35
2019-08-15 08:26:48.109375,3.22
2019-08-15 08:26:48.125000,-6.23
2019-08-15 08:26:48.140625,-9.86
2019-08-15 08:26:48.156250,-6.89
2019-08-15 08:26:48.171875,0.06
2019-08-15 08:26:48.187500,6.83
2019-08-15 08:26:48.203125,10.09
2019-08-15 08:26:48.218750,9.14
2019-08-15 08:26:48.234375,5.86
2019-08-15 08:26:48.250000,3.31
2019-08-15 08:26:48.265625,3.62
2019-08-15 08:26:48.281250,6.48
2019-08-15 08:26:48.296875,9.26
2019-08-15 08:26:48.312500,8.68
2019-08-15 08:26:48.328125,2.87
2019-08-15 08:26:48.343750,-7.04
2019-08-15 08:26:48.359375,-17.07
2019-08-15 08:26:48.375000,-22.32
2019-08-15 08:26:48.390625,-19.6
2019-08-15 08:26:48.406250,-9.35
2019-08-15 08:26:48.421875,4.29
2019-08-15 08:26:48.437500,15.46
2019-08-15 08:26:48.453125,19.63
2019-08-15 08:26:48.468750,15.89
2019-08-15 08:26:48.484375,7.33
2019-08-15 08:26:48.500000,-0.94
2019-08-15 08:26:48.515625,-4.85
2019-08-15 08:26:48.531250,-3.73
2019-08-15 08:26:48.546875,-0.34
2019-08-15 08:26:48.562500,1.03
2019-08-15 08:26:48.578125,-2.38
2019-08-15 08:26:48.593750,-9.91
2019-08-15 08:26:48.609375,-17.59
2019-08-15 08:26:48.625000,-20.52
2019-08-15 08:26:48.640625,-15.87
2019-08-15 08:26:48.656250,-4.73
2019-08-15 08:26:48.671875,8.2
2019-08-15 08:26:48.687500,17.15
2019-08-15 08:26:48.703125,18.24
2019-08-15 08:26:48.718750,11.63
2019-08-15 08:26:48.734375,1.1
2019-08-15 08:26:48.750000,-8.06
2019-08-15 08:26:48.765625,-12.1
2019-08-15 08:26:48.781250,-10.73
2019-08-15 08:26:48.796875,-7.05
2019-08-15 08:26:48.812500,-5.27
2019-08-15 08:26:48.828125,-7.98
2019-08-15 08:26:48.843750,-14.31
2019-08-15 08:26:48.859375,-20.35
2019-08-15 08:26:48.875000,-21.58
2019-08-15 08:26:48.890625,-15.67
2019-08-15 08:26:48.906250,-4.13
2019-08-15 08:26:48.921875,8.43
2019-08-15 08:26:48.937500,16.66
2019-08-15 08:26:48.953125,17.59
2019-08-15 08:26:48.968750,12.04
2019-08-15 08:26:48.984375,3.99
2019-08-15 08:26:49.000000,-1.82
2019-08-15 08:26:49.015625,-2.69
2019-08-15 08:26:49.031250,0.64
2019-08-15 08:26:49.046875,4.76
2019-08-15 08:26:49.062500,5.84
2019-08-15 08:26:49.078125,2.29
2019-08-15 08:26:49.093750,-4.25
2019-08-15 08:26:49.109375,-9.71
2019-08-15 08:26:49.125000,-10.09
2019-08-15 08:26:49.140625,-3.95
2019-08-15 08:26:49.156250,6.47
2019-08-15 08:26:49.171875,16.37
2019-08-15 08:26:49.187500,20.97
2019-08-15 08:26:49.203125,18.32
2019-08-15 08:26:49.218750,10.46
2019-08-15 08:26:49.234375,2.22
2019-08-15 08:26:49.250000,-1.48
2019-08-15 08:26:49.265625,1.35
2019-08-15 08:26:49.281250,8.66
2019-08-15 08:26:49.296875,15.48
2019-08-15 08:26:49.312500,16.76
2019-08-15 08:26:49.328125,10.23
2019-08-15 08:26:49.343750,-2.22
2019-08-15 08:26:49.359375,-15.55
2019-08-15 08:26:49.375000,-24.12
2019-08-15 08:26:49.390625,-24.8
2019-08-15 08:26:49.406250,-18.3
2019-08-15 08:26:49.421875,-8.68
2019-08-15 08:26:49.437500,-0.98
2019-08-15 08:26:49.453125,1.6
2019-08-15 08:26:49.468750,-0.7
2019-08-15 08:26:49.484375,-4.61
2019-08-15 08:26:49.500000,-5.86
2019-08-15 08:26:49.515625,-1.92
2019-08-15 08:26:49.531250,6.55
2019-08-15 08:26:49.546875,15.97
2019-08-15 08:26:49.562500,22.0
2019-08-15 08:26:49.578125,22.1
2019-08-15 08:26:49.593750,16.81
2019-08-15 08:26:49.609375,9.53
2019-08-15 08:26:49.625000,4.33
2019-08-15 08:26:49.640625,3.55
2019-08-15 08:26:49.656250,6.5
2019-08-15 08:26:49.671875,9.87
2019-08-15 08:26:49.687500,9.83
2019-08-15 08:26:49.703125,4.41
2019-08-15 08:26:49.718750,-5.2
2019-08-15 08:26:49.734375,-15.24
2019-08-15 08:26:49.750000,-21.36
2019-08-15 08:26:49.765625,-21.07
2019-08-15 08:26:49.781250,-15.13
2019-08-15 08:26:49.796875,-7.15
2019-08-15 08:26:49.812500,-1.37
2019-08-15 08:26:49.828125,-0.34
2019-08-15 08:26:49.843750,-3.46
2019-08-15 08:26:49.859375,-7.53
2019-08-15 08:26:49.875000,-8.8
2019-08-15 08:26:49.890625,-5.41
2019-08-15 08:26:49.906250,1.47
2019-08-15 08:26:49.921875,8.17
2019-08-15 08:26:49.937500,10.96
2019-08-15 08:26:49.953125,8.23
2019-08-15 08:26:49.968750,1.63
2019-08-15 08:26:49.984375,-5.01
2019-08-15 08:26:50.000000,-7.89
2019-08-15 08:26:50.015625,-5.67
2019-08-15 08:26:50.031250,-0.2
2019-08-15 08:26:50.046875,4.53
2019-08-15 08:26:50.062500,4.85
2019-08-15 08:26:50.078125,-0.16
2019-08-15 08:26:50.093750,-8.08
2019-08-15 08:26:50.109375,-14.24
2019-08-15 08:26:50.125000,-14.42
2019-08-15 08:26:50.140625,-7.3
2019-08-15 08:26:50.156250,4.62
2019-08-15 08:26:50.171875,16.14
2019-08-15 08:26:50.187500,22.15
2019-08-15 08:26:50.203125,20.26
2019-08-15 08:26:50.218750,12.02
2019-08-15 08:26:50.234375,1.85
2019-08-15 08:26:50.250000,-5.46
2019-08-15 08:26:50.265625,-7.41
2019-08-15 08:26:50.281250,-4.9
2019-08-15 08:26:50.296875,-1.36
2019-08-15 08:26:50.312500,-0.34
2019-08-15 08:26:50.328125,-3.2
2019-08-15 08:26:50.343750,-8.31
2019-08-15 08:26:50.359375,-11.95
2019-08-15 08:26:50.375000,-10.87
2019-08-15 08:26:50.390625,-4.4
2019-08-15 08:26:50.406250,4.81
2019-08-15 08:26:50.421875,12.0
2019-08-15 08:26:50.437500,12.95
2019-08-15 08:26:50.453125,6.5
2019-08-15 08:26:50.468750,-4.71
2019-08-15 08:26:50.484375,-15.41
2019-08-15 08:26:50.500000,-20.44
2019-08-15 08:26:50.515625,-17.55
2019-08-15 08:26:50.531250,-8.32
2019-08-15 08:26:50.546875,2.66
2019-08-15 08:26:50.562500,10.44
2019-08-15 08:26:50.578125,12.34
2019-08-15 08:26:50.593750,9.15
2019-08-15 08:26:50.609375,4.25
2019-08-15 08:26:50.625000,1.24
2019-08-15 08:26:50.640625,1.72
2019-08-15 08:26:50.656250,4.37
2019-08-15 08:26:50.671875,6.01
2019-08-15 08:26:50.687500,4.03
2019-08-15 08:26:50.703125,-1.73
2019-08-15 08:26:50.718750,-8.54
2019-08-15 08:26:50.734375,-12.23
2019-08-15 08:26:50.750000,-9.77
2019-08-15 08:26:50.765625,-1.15
2019-08-15 08:26:50.781250,10.27
2019-08-15 08:26:50.796875,19.29
2019-08-15 08:26:50.812500,21.65
2019-08-15 08:26:50.828125,16.19
2019-08-15 08:26:50.843750,5.49
2019-08-15 08:26:50.859375,-5.54
2019-08-15 08:26:50.875000,-12.38
2019-08-15 08:26:50.890625,-13.11
2019-08-15 08:26:50.906250,-9.3
2019-08-15 08:26:50.921875,-4.68
2019-08-15 08:26:50.937500,-2.84
2019-08-15 08:26:50.953125,-4.92
2019-08-15 08:26:50.968750,-9.08
2019-08-15 08:26:50.984375,-11.62
2019-08-15 08:26:51.000000,-9.42
2019-08-15 08:26:51.015625,-2.03
2019-08-15 08:26:51.031250,7.96
2019-08-15 08:26:51.046875,16.05
2019-08-15 08:26:51.062500,18.46
2019-08-15 08:26:51.078125,14.13
2019-08-15 08:26:51.093750,5.43
2019-08-15 08:26:51.109375,-3.12
2019-08-15 08:26:51.125000,-7.27
2019-08-15 08:26:51.140625,-5.22
2019-08-15 08:26:51.156250,1.44
2019-08-15 08:26:51.171875,8.75
2019-08-15 08:26:51.187500,12.52
2019-08-15 08:26:51.203125,10.68
2019-08-15 08:26:51.218750,4.3
2019-08-15 08:26:51.234375,-3.03
2019-08-15 08:26:51.250000,-7.44
2019-08-15 08:26:51.265625,-7.09
2019-08-15 08:26:51.281250,-3.32
2019-08-15 08:26:51.296875,0.06
2019-08-15 08:26:51.312500,-0.78
2019-08-15 08:26:51.328125,-7.22
2019-08-15 08:26:51.343750,-16.91
2019-08-15 08:26:51.359375,-24.92
2019-08-15 08:26:51.375000,-26.49
2019-08-15 08:26:51.390625,-19.92
2019-08-15 08:26:51.406250,-7.63
2019-08-15 08:26:51.421875,4.98
2019-08-15 08:26:51.437500,12.63
2019-08-15 08:26:51.453125,13.09
2019-08-15 08:26:51.468750,8.27
2019-08-15 08:26:51.484375,2.89
2019-08-15 08:26:51.500000,1.46
2019-08-15 08:26:51.515625,5.5
2019-08-15 08:26:51.531250,12.71
2019-08-15 08:26:51.546875,18.44
2019-08-15 08:26:51.562500,18.68
2019-08-15 08:26:51.578125,12.48
2019-08-15 08:26:51.593750,2.57
2019-08-15 08:26:51.609375,-6.26
2019-08-15 08:26:51.625000,-9.99
2019-08-15 08:26:51.640625,-7.61
2019-08-15 08:26:51.656250,-1.57
2019-08-15 08:26:51.671875,3.9
2019-08-15 08:26:51.687500,5.39
2019-08-15 08:26:51.703125,2.26
2019-08-15 08:26:51.718750,-2.94
2019-08-15 08:26:51.734375,-6.13
2019-08-15 08:26:51.750000,-4.3
2019-08-15 08:26:51.765625,2.65
2019-08-15 08:26:51.781250,11.65
2019-08-15 08:26:51.796875,18.09
2019-08-15 08:26:51.812500,18.45
2019-08-15 08:26:51.828125,12.22
2019-08-15 08:26:51.843750,2.25
2019-08-15 08:26:51.859375,-6.86
2019-08-15 08:26:51.875000,-11.22
2019-08-15 08:26:51.890625,-9.76
2019-08-15 08:26:51.906250,-4.62
2019-08-15 08:26:51.921875,0.17
2019-08-15 08:26:51.937500,1.15
2019-08-15 08:26:51.953125,-2.6
2019-08-15 08:26:51.968750,-8.89
2019-08-15 08:26:51.984375,-13.73
2019-08-15 08:26:52.000000,-13.69
2019-08-15 08:26:52.015625,-7.93
2019-08-15 08:26:52.031250,1.27
2019-08-15 08:26:52.046875,9.75
2019-08-15 08:26:52.062500,13.92
2019-08-15 08:26:52.078125,12.59
2019-08-15 08:26:52.093750,7.53
2019-08-15 08:26:52.109375,2.28
2019-08-15 08:26:52.125000,-0.05
2019-08-15 08:26:52.140625,1.28
2019-08-15 08:26:52.156250,4.29
2019-08-15 08:26:52.171875,5.62
2019-08-15 08:26:52.187500,2.72
2019-08-15 08:26:52.203125,-4.35
2019-08-15 08:26:52.218750,-12.73
2019-08-15 08:26:52.234375,-18.16
2019-08-15 08:26:52.250000,-17.48
2019-08-15 08:26:52.265625,-10.48
2019-08-15 08:26:52.281250,-0.07
2019-08-15 08:26:52.296875,9.23
2019-08-15 08:26:52.312500,13.78
2019-08-15 08:26:52.328125,12.73
2019-08-15 08:26:52.343750,8.31
2019-08-15 08:26:52.359375,4.28
2019-08-15 08:26:52.375000,3.51
2019-08-15 08:26:52.390625,6.12
2019-08-15 08:26:52.406250,9.53
2019-08-15 08:26:52.421875,10.07
2019-08-15 08:26:52.437500,5.46
2019-08-15 08:26:52.453125,-3.47
2019-08-15 08:26:52.468750,-13.07
2019-08-15 08:26:52.484375,-18.86
2019-08-15 08:26:52.500000,-18.08
2019-08-15 08:26:52.515625,-11.45
2019-08-15 08:26:52.531250,-2.76
2019-08-15 08:26:52.546875,3.21
2019-08-15 08:26:52.562500,3.54
2019-08-15 08:26:52.578125,-1.26
2019-08-15 08:26:52.593750,-7.59
2019-08-15 08:26:52.609375,-11.01
2019-08-15 08:26:52.625000,-8.84
2019-08-15 08:26:52.640625,-1.8
2019-08-15 08:26:52.656250,6.38
2019-08-15 08:26:52.671875,11.25
2019-08-15 08:26:52.687500,10.06
2019-08-15 08:26:52.703125,3.46
2019-08-15 08:26:52.718750,-5.09
2019-08-15 08:26:52.734375,-11.21
2019-08-15 08:26:52.750000,-12.15
2019-08-15 08:26:52.765625,-8.29
2019-08-15 08:26:52.781250,-2.79
2019-08-15 08:26:52.796875,0.44
2019-08-15 08:26:52.812500,-0.88
2019-08-15 08:26:52.828125,-5.95
2019-08-15 08:26:52.843750,-11.31
2019-08-15 08:26:52.859375,-12.87
2019-08-15 08:26:52.875000,-8.34
2019-08-15 08:26:52.890625,1.28
2019-08-15 08:26:52.906250,12.08
2019-08-15 08:26:52.921875,19.43
2019-08-15 08:26:52.937500,20.41
2019-08-15 08:26:52.953125,15.43
2019-08-15 08:26:52.968750,7.94
2019-08-15 08:26:52.984375,2.38
2019-08-15 08:26:53.000000,1.65
2019-08-15 08:26:53.015625,5.53
2019-08-15 08:26:53.031250,10.9
2019-08-15 08:26:53.046875,13.54
2019-08-15 08:26:53.062500,10.66
2019-08-15 08:26:53.078125,2.42
2019-08-15 08:26:53.093750,-8.04
2019-08-15 08:26:53.109375,-16.26
2019-08-15 08:26:53.125000,-18.73
2019-08-15 08:26:53.140625,-14.65
2019-08-15 08:26:53.156250,-6.17
2019-08-15 08:26:53.171875,2.74
2019-08-15 08:26:53.187500,8.5
2019-08-15 08:26:53.203125,9.66
2019-08-15 08:26:53.218750,7.38
2019-08-15 08:26:53.234375,4.41
2019-08-15 08:26:53.250000,3.14
2019-08-15 08:26:53.265625,4.02
2019-08-15 08:26:53.281250,5.32
2019-08-15 08:26:53.296875,4.2
2019-08-15 08:26:53.312500,-1.03
2019-08-15 08:26:53.328125,-9.41
2019-08-15 08:26:53.343750,-17.4
2019-08-15 08:26:53.359375,-20.55
2019-08-15 08:26:53.375000,-16.23
2019-08-15 08:26:53.390625,-5.51
2019-08-15 08:26:53.406250,7.0
2019-08-15 08:26:53.421875,15.36
2019-08-15 08:26:53.437500,15.51
2019-08-15 08:26:53.453125,7.58
2019-08-15 08:26:53.468750,-4.16
2019-08-15 08:26:53.484375,-13.58
2019-08-15 08:26:53.500000,-16.13
2019-08-15 08:26:53.515625,-11.11
2019-08-15 08:26:53.531250,-1.76
2019-08-15 08:26:53.546875,6.77
2019-08-15 08:26:53.562500,10.51
2019-08-15 08:26:53.578125,8.71
2019-08-15 08:26:53.593750,3.9
2019-08-15 08:26:53.609375,-0.02
2019-08-15 08:26:53.625000,-0.46
2019-08-15 08:26:53.640625,2.36
2019-08-15 08:26:53.656250,5.56
2019-08-15 08:26:53.671875,5.56
2019-08-15 08:26:53.687500,0.51
2019-08-15 08:26:53.703125,-8.4
2019-08-15 08:26:53.718750,-17.39
2019-08-15 08:26:53.734375,-22.05
2019-08-15 08:26:53.750000,-19.81
2019-08-15 08:26:53.765625,-11.51
2019-08-15 08:26:53.781250,-0.91
2019-08-15 08:26:53.796875,7.24
2019-08-15 08:26:53.812500,9.7
2019-08-15 08:26:53.828125,6.44
2019-08-15 08:26:53.843750,0.37
2019-08-15 08:26:53.859375,-4.46
2019-08-15 08:26:53.875000,-5.23
2019-08-15 08:26:53.890625,-1.92
2019-08-15 08:26:53.906250,2.94
2019-08-15 08:26:53.921875,5.98
2019-08-15 08:26:53.937500,5.21
2019-08-15 08:26:53.953125,1.34
2019-08-15 08:26:53.968750,-2.6
2019-08-15 08:26:53.984375,-3.08
2019-08-15 08:26:54.000000,1.71
2019-08-15 08:26:54.015625,10.45
2019-08-15 08:26:54.031250,19.26
2019-08-15 08:26:54.046875,23.59
2019-08-15 08:26:54.062500,20.74
2019-08-15 08:26:54.078125,11.42
2019-08-15 08:26:54.093750,-0.37
2019-08-15 08:26:54.109375,-9.36
2019-08-15 08:26:54.125000,-11.74
2019-08-15 08:26:54.140625,-6.98
2019-08-15 08:26:54.156250,1.86
2019-08-15 08:26:54.171875,9.79
2019-08-15 08:26:54.187500,12.71
2019-08-15 08:26:54.203125,9.54
2019-08-15 08:26:54.218750,2.57
2019-08-15 08:26:54.234375,-4.06
2019-08-15 08:26:54.250000,-6.92
2019-08-15 08:26:54.265625,-5.35
2019-08-15 08:26:54.281250,-1.63
2019-08-15 08:26:54.296875,0.76
2019-08-15 08:26:54.312500,-0.52
2019-08-15 08:26:54.328125,-4.98
2019-08-15 08:26:54.343750,-9.71
2019-08-15 08:26:54.359375,-11.29
2019-08-15 08:26:54.375000,-8.14
2019-08-15 08:26:54.390625,-1.76
2019-08-15 08:26:54.406250,4.05
2019-08-15 08:26:54.421875,5.46
2019-08-15 08:26:54.437500,0.98
2019-08-15 08:26:54.453125,-7.48
2019-08-15 08:26:54.468750,-15.47
2019-08-15 08:26:54.484375,-18.41
2019-08-15 08:26:54.500000,-14.1
2019-08-15 08:26:54.515625,-3.92
2019-08-15 08:26:54.531250,7.82
2019-08-15 08:26:54.546875,16.05
2019-08-15 08:26:54.562500,17.41
2019-08-15 08:26:54.578125,11.96
2019-08-15 08:26:54.593750,2.81
2019-08-15 08:26:54.609375,-5.47
2019-08-15 08:26:54.625000,-9.3
2019-08-15 08:26:54.640625,-7.8
2019-08-15 08:26:54.656250,-2.82
2019-08-15 08:26:54.671875,2.41
2019-08-15 08:26:54.687500,5.29
2019-08-15 08:26:54.703125,5.42
2019-08-15 08:26:54.718750,4.53
2019-08-15 08:26:54.734375,5.06
2019-08-15 08:26:54.750000,8.35
2019-08-15 08:26:54.765625,13.19
2019-08-15 08:26:54.781250,16.36
2019-08-15 08:26:54.796875,14.47
2019-08-15 08:26:54.812500,6.3
2019-08-15 08:26:54.828125,-5.73
2019-08-15 08:26:54.843750,-16.42
2019-08-15 08:26:54.859375,-20.29
2019-08-15 08:26:54.875000,-14.74
2019-08-15 08:26:54.890625,-1.91
2019-08-15 08:26:54.906250,12.19
2019-08-15 08:26:54.921875,20.66
2019-08-15 08:26:54.937500,19.34
2019-08-15 08:26:54.953125,9.1
2019-08-15 08:26:54.968750,-4.65
2019-08-15 08:26:54.984375,-14.93
2019-08-15 08:26:55.000000,-17.02
2019-08-15 08:26:55.015625,-10.74
2019-08-15 08:26:55.031250,-0.46
2019-08-15 08:26:55.046875,7.64
2019-08-15 08:26:55.062500,8.98
2019-08-15 08:26:55.078125,3.09
2019-08-15 08:26:55.093750,-6.4
2019-08-15 08:26:55.109375,-13.95
2019-08-15 08:26:55.125000,-15.24
2019-08-15 08:26:55.140625,-9.62
2019-08-15 08:26:55.156250,-0.22
2019-08-15 08:26:55.171875,8.03
2019-08-15 08:26:55.187500,11.33
2019-08-15 08:26:55.203125,9.19
2019-08-15 08:26:55.218750,4.41
2019-08-15 08:26:55.234375,1.16
2019-08-15 08:26:55.250000,2.06
2019-08-15 08:26:55.265625,6.43
2019-08-15 08:26:55.281250,10.65
2019-08-15 08:26:55.296875,10.56
2019-08-15 08:26:55.312500,4.23
2019-08-15 08:26:55.328125,-6.44
2019-08-15 08:26:55.343750,-16.62
2019-08-15 08:26:55.359375,-21.09
2019-08-15 08:26:55.375000,-17.31
2019-08-15 08:26:55.390625,-6.97
2019-08-15 08:26:55.406250,4.92
2019-08-15 08:26:55.421875,12.53
2019-08-15 08:26:55.437500,12.3
2019-08-15 08:26:55.453125,4.82
2019-08-15 08:26:55.468750,-5.8
2019-08-15 08:26:55.484375,-13.98
2019-08-15 08:26:55.500000,-15.83
2019-08-15 08:26:55.515625,-10.98
2019-08-15 08:26:55.531250,-2.52
2019-08-15 08:26:55.546875,4.95
2019-08-15 08:26:55.562500,8.1
2019-08-15 08:26:55.578125,6.63
2019-08-15 08:26:55.593750,3.22
2019-08-15 08:26:55.609375,1.48
2019-08-15 08:26:55.625000,3.42
2019-08-15 08:26:55.640625,7.94
2019-08-15 08:26:55.656250,11.31
2019-08-15 08:26:55.671875,9.54
2019-08-15 08:26:55.687500,1.24
2019-08-15 08:26:55.703125,-11.14
2019-08-15 08:26:55.718750,-22.21
2019-08-15 08:26:55.734375,-26.52
2019-08-15 08:26:55.750000,-21.67
2019-08-15 08:26:55.765625,-9.74
2019-08-15 08:26:55.781250,3.75
2019-08-15 08:26:55.796875,12.88
2019-08-15 08:26:55.812500,14.5
2019-08-15 08:26:55.828125,9.8
2019-08-15 08:26:55.843750,3.27
2019-08-15 08:26:55.859375,-0.07
2019-08-15 08:26:55.875000,2.28
2019-08-15 08:26:55.890625,8.89
2019-08-15 08:26:55.906250,15.57
2019-08-15 08:26:55.921875,17.83
2019-08-15 08:26:55.937500,13.66
2019-08-15 08:26:55.953125,4.76
2019-08-15 08:26:55.968750,-4.55
2019-08-15 08:26:55.984375,-9.8
2019-08-15 08:26:56.000000,-8.87
2019-08-15 08:26:56.015625,-3.13
2019-08-15 08:26:56.031250,3.54
2019-08-15 08:26:56.046875,7.07
2019-08-15 08:26:56.062500,5.54
2019-08-15 08:26:56.078125,0.11
2019-08-15 08:26:56.093750,-5.79
2019-08-15 08:26:56.109375,-8.72
2019-08-15 08:26:56.125000,-7.35
2019-08-15 08:26:56.140625,-3.26
2019-08-15 08:26:56.156250,0.06
2019-08-15 08:26:56.171875,-0.66
2019-08-15 08:26:56.187500,-6.27
2019-08-15 08:26:56.203125,-14.58
2019-08-15 08:26:56.218750,-21.24
2019-08-15 08:26:56.234375,-22.24
2019-08-15 08:26:56.250000,-16.13
2019-08-15 08:26:56.265625,-4.94
2019-08-15 08:26:56.281250,6.78
2019-08-15 08:26:56.296875,14.29
2019-08-15 08:26:56.312500,15.21
2019-08-15 08:26:56.328125,10.49
2019-08-15 08:26:56.343750,3.7
2019-08-15 08:26:56.359375,-1.21
2019-08-15 08:26:56.375000,-2.14
2019-08-15 08:26:56.390625,0.22
2019-08-15 08:26:56.406250,3.15
2019-08-15 08:26:56.421875,3.89
2019-08-15 08:26:56.437500,1.58
2019-08-15 08:26:56.453125,-2.19
2019-08-15 08:26:56.468750,-4.39
2019-08-15 08:26:56.484375,-2.65
2019-08-15 08:26:56.500000,3.15
2019-08-15 08:26:56.515625,10.47
2019-08-15 08:26:56.531250,15.35
2019-08-15 08:26:56.546875,14.78
2019-08-15 08:26:56.562500,8.34
2019-08-15 08:26:56.578125,-1.33
2019-08-15 08:26:56.593750,-9.67
2019-08-15 08:26:56.609375,-12.54
2019-08-15 08:26:56.625000,-8.35
2019-08-15 08:26:56.640625,1.09
2019-08-15 08:26:56.656250,11.44
2019-08-15 08:26:56.671875,17.94
2019-08-15 08:26:56.687500,18.05
2019-08-15 08:26:56.703125,12.44
2019-08-15 08:26:56.718750,4.67
2019-08-15 08:26:56.734375,-1.13
2019-08-15 08:26:56.750000,-2.64
2019-08-15 08:26:56.765625,-0.58
2019-08-15 08:26:56.781250,1.97
2019-08-15 08:26:56.796875,1.74
2019-08-15 08:26:56.812500,-2.46
2019-08-15 08:26:56.828125,-8.67
2019-08-15 08:26:56.843750,-13.11
2019-08-15 08:26:56.859375,-12.44
2019-08-15 08:26:56.875000,-6.2
2019-08-15 08:26:56.890625,2.79
2019-08-15 08:26:56.906250,9.74
2019-08-15 08:26:56.921875,10.69
2019-08-15 08:26:56.937500,4.82
2019-08-15 08:26:56.953125,-5.08
2019-08-15 08:26:56.968750,-14.02
2019-08-15 08:26:56.984375,-17.71
2019-08-15 08:26:57.000000,-14.71
2019-08-15 08:26:57.015625,-7.22
2019-08-15 08:26:57.031250,0.39
2019-08-15 08:26:57.046875,4.17
2019-08-15 08:26:57.062500,2.92
2019-08-15 08:26:57.078125,-1.39
2019-08-15 08:26:57.093750,-4.78
2019-08-15 08:26:57.109375,-3.93
2019-08-15 08:26:57.125000,1.75
2019-08-15 08:26:57.140625,9.61
2019-08-15 08:26:57.156250,15.25
2019-08-15 08:26:57.171875,14.94
2019-08-15 08:26:57.187500,8.08
2019-08-15 08:26:57.203125,-2.43
2019-08-15 08:26:57.218750,-11.62
2019-08-15 08:26:57.234375,-15.12
2019-08-15 08:26:57.250000,-11.6
2019-08-15 08:26:57.265625,-3.24
2019-08-15 08:26:57.281250,5.5
2019-08-15 08:26:57.296875,10.58
2019-08-15 08:26:57.312500,10.48
2019-08-15 08:26:57.328125,6.86
2019-08-15 08:26:57.343750,3.22
2019-08-15 08:26:57.359375,2.59
2019-08-15 08:26:57.375000,5.5
2019-08-15 08:26:57.390625,9.56
2019-08-15 08:26:57.406250,10.95
2019-08-15 08:26:57.421875,6.74
2019-08-15 08:26:57.437500,-2.89
2019-08-15 08:26:57.453125,-14.58
2019-08-15 08:26:57.468750,-23.24
2019-08-15 08:26:57.484375,-24.92
2019-08-15 08:26:57.500000,-18.97
2019-08-15 08:26:57.515625,-8.43
2019-08-15 08:26:57.531250,1.53
2019-08-15 08:26:57.546875,6.41
2019-08-15 08:26:57.562500,4.7
2019-08-15 08:26:57.578125,-1.49
2019-08-15 08:26:57.593750,-7.9
2019-08-15 08:26:57.609375,-10.73
2019-08-15 08:26:57.625000,-8.84
2019-08-15 08:26:57.640625,-4.25
2019-08-15 08:26:57.656250,-0.55
2019-08-15 08:26:57.671875,-0.6
2019-08-15 08:26:57.687500,-4.51
2019-08-15 08:26:57.703125,-9.59
2019-08-15 08:26:57.718750,-11.86
2019-08-15 08:26:57.734375,-8.56
2019-08-15 08:26:57.750000,0.14
2019-08-15 08:26:57.765625,11.02
2019-08-15 08:26:57.781250,19.38
2019-08-15 08:26:57.796875,21.56
2019-08-15 08:26:57.812500,16.81
2019-08-15 08:26:57.828125,7.61
2019-08-15 08:26:57.843750,-1.68
2019-08-15 08:26:57.859375,-7.18
2019-08-15 08:26:57.875000,-7.45
2019-08-15 08:26:57.890625,-4.02
2019-08-15 08:26:57.906250,-0.16
2019-08-15 08:26:57.921875,1.18
2019-08-15 08:26:57.937500,-0.65
2019-08-15 08:26:57.953125,-3.65
2019-08-15 08:26:57.968750,-4.41
2019-08-15 08:26:57.984375,-0.47
2019-08-15 08:26:58.000000,7.96
2019-08-15 08:26:58.015625,17.7
2019-08-15 08:26:58.031250,24.23
2019-08-15 08:26:58.046875,24.16
2019-08-15 08:26:58.062500,17.18
2019-08-15 08:26:58.078125,6.36
2019-08-15 08:26:58.093750,-3.42
2019-08-15 08:26:58.109375,-7.9
2019-08-15 08:26:58.125000,-5.7
2019-08-15 08:26:58.140625,1.29
2019-08-15 08:26:58.156250,8.96
2019-08-15 08:26:58.171875,13.3
2019-08-15 08:26:58.187500,12.46
2019-08-15 08:26:58.203125,7.46
2019-08-15 08:26:58.218750,1.44
2019-08-15 08:26:58.234375,-2.46
2019-08-15 08:26:58.250000,-2.95
2019-08-15 08:26:58.265625,-1.35
2019-08-15 08:26:58.281250,-0.63
2019-08-15 08:26:58.296875,-3.37
2019-08-15 08:26:58.312500,-9.69
2019-08-15 08:26:58.328125,-16.73
2019-08-15 08:26:58.343750,-20.09
2019-08-15 08:26:58.359375,-16.46
2019-08-15 08:26:58.375000,-5.95
2019-08-15 08:26:58.390625,7.4
2019-08-15 08:26:58.406250,17.27
2019-08-15 08:26:58.421875,18.57
2019-08-15 08:26:58.437500,10.19
2019-08-15 08:26:58.453125,-4.17
2019-08-15 08:26:58.468750,-17.86
2019-08-15 08:26:58.484375,-24.92
2019-08-15 08:26:58.500000,-22.98
2019-08-15 08:26:58.515625,-14.39
2019-08-15 08:26:58.531250,-4.41
2019-08-15 08:26:58.546875,1.93
2019-08-15 08:26:58.562500,2.55
2019-08-15 08:26:58.578125,-0.94
2019-08-15 08:26:58.593750,-4.85
2019-08-15 08:26:58.609375,-6.0
2019-08-15 08:26:58.625000,-3.8
2019-08-15 08:26:58.640625,-0.33
2019-08-15 08:26:58.656250,1.32
2019-08-15 08:26:58.671875,-0.57
2019-08-15 08:26:58.687500,-5.0
2019-08-15 08:26:58.703125,-8.64
2019-08-15 08:26:58.718750,-7.88
2019-08-15 08:26:58.734375,-1.2
2019-08-15 08:26:58.750000,9.6
2019-08-15 08:26:58.765625,20.07
2019-08-15 08:26:58.781250,25.4
2019-08-15 08:26:58.796875,22.78
2019-08-15 08:26:58.812500,13.12
2019-08-15 08:26:58.828125,0.67
2019-08-15 08:26:58.843750,-8.99
2019-08-15 08:26:58.859375,-11.75
2019-08-15 08:26:58.875000,-6.91
2019-08-15 08:26:58.890625,2.67
2019-08-15 08:26:58.906250,12.04
2019-08-15 08:26:58.921875,16.92
2019-08-15 08:26:58.937500,15.76
2019-08-15 08:26:58.953125,10.36
2019-08-15 08:26:58.968750,4.45
2019-08-15 08:26:58.984375,1.34
2019-08-15 08:26:59.000000,1.95
2019-08-15 08:26:59.015625,4.33
2019-08-15 08:26:59.031250,5.05
2019-08-15 08:26:59.046875,1.56
2019-08-15 08:26:59.062500,-6.01
2019-08-15 08:26:59.078125,-14.52
2019-08-15 08:26:59.093750,-19.52
2019-08-15 08:26:59.109375,-17.8
2019-08-15 08:26:59.125000,-9.43
2019-08-15 08:26:59.140625,2.12
2019-08-15 08:26:59.156250,11.71
2019-08-15 08:26:59.171875,15.28
2019-08-15 08:26:59.187500,11.83
2019-08-15 08:26:59.203125,3.92
2019-08-15 08:26:59.218750,-3.94
2019-08-15 08:26:59.234375,-7.81
2019-08-15 08:26:59.250000,-6.51
2019-08-15 08:26:59.265625,-2.03
2019-08-15 08:26:59.281250,1.82
2019-08-15 08:26:59.296875,1.96
2019-08-15 08:26:59.312500,-2.0
2019-08-15 08:26:59.328125,-7.37
2019-08-15 08:26:59.343750,-10.09
2019-08-15 08:26:59.359375,-7.4
2019-08-15 08:26:59.375000,0.12
2019-08-15 08:26:59.390625,8.66
2019-08-15 08:26:59.406250,13.09
2019-08-15 08:26:59.421875,10.05
2019-08-15 08:26:59.437500,-0.01
2019-08-15 08:26:59.453125,-12.7
2019-08-15 08:26:59.468750,-22.01
2019-08-15 08:26:59.484375,-23.48
2019-08-15 08:26:59.500000,-16.57
2019-08-15 08:26:59.515625,-4.76
2019-08-15 08:26:59.531250,6.48
2019-08-15 08:26:59.546875,12.77
2019-08-15 08:26:59.562500,12.96
2019-08-15 08:26:59.578125,9.3
2019-08-15 08:26:59.593750,5.63
2019-08-15 08:26:59.609375,4.89
2019-08-15 08:26:59.625000,7.36
2019-08-15 08:26:59.640625,10.6
2019-08-15 08:26:59.656250,11.13
2019-08-15 08:26:59.671875,6.66
2019-08-15 08:26:59.687500,-2.31
2019-08-15 08:26:59.703125,-12.6
2019-08-15 08:26:59.718750,-19.95
2019-08-15 08:26:59.734375,-21.35
2019-08-15 08:26:59.750000,-16.75
2019-08-15 08:26:59.765625,-9.01
2019-08-15 08:26:59.781250,-2.43
2019-08-15 08:26:59.796875,-0.15
2019-08-15 08:26:59.812500,-2.53
2019-08-15 08:26:59.828125,-6.88
2019-08-15 08:26:59.843750,-9.3
2019-08-15 08:26:59.859375,-6.95
2019-08-15 08:26:59.875000,0.05
2019-08-15 08:26:59.890625,8.72
2019-08-15 08:26:59.906250,14.9
2019-08-15 08:26:59.921875,15.74
2019-08-15 08:26:59.937500,11.37
2019-08-15 08:26:59.953125,4.78
2019-08-15 08:26:59.968750,0.02
2019-08-15 08:26:59.984375,-0.28
2019-08-15 08:27:00.000000,3.53
2019-08-15 08:27:00.015625,8.33
2019-08-15 08:27:00.031250,9.97
2019-08-15 08:27:00.046875,5.83
2019-08-15 08:27:00.062500,-3.59
2019-08-15 08:27:00.078125,-14.68
2019-08-15 08:27:00.093750,-22.6
2019-08-15 08:27:00.109375,-23.82
2019-08-15 08:27:00.125000,-18.11
2019-08-15 08:27:00.140625,-8.61
2019-08-15 08:27:00.156250,-0.18
2019-08-15 08:27:00.171875,3.32
2019-08-15 08:27:00.187500,1.16
2019-08-15 08:27:00.203125,-3.85
2019-08-15 08:27:00.218750,-7.23
2019-08-15 08:27:00.234375,-5.64
2019-08-15 08:27:00.250000,1.08
2019-08-15 08:27:00.265625,9.63
2019-08-15 08:27:00.281250,15.2
2019-08-15 08:27:00.296875,14.32
2019-08-15 08:27:00.312500,7.04
2019-08-15 08:27:00.328125,-2.96
2019-08-15 08:27:00.343750,-10.5
2019-08-15 08:27:00.359375,-11.66
2019-08-15 08:27:00.375000,-6.08
2019-08-15 08:27:00.390625,3.05
2019-08-15 08:27:00.406250,10.93
2019-08-15 08:27:00.421875,13.93
2019-08-15 08:27:00.437500,11.55
2019-08-15 08:27:00.453125,6.58
2019-08-15 08:27:00.468750,3.2
2019-08-15 08:27:00.484375,4.32
2019-08-15 08:27:00.500000,9.69
2019-08-15 08:27:00.515625,16.01
2019-08-15 08:27:00.531250,18.7
2019-08-15 08:27:00.546875,14.77
2019-08-15 08:27:00.562500,4.61
2019-08-15 08:27:00.578125,-8.04
2019-08-15 08:27:00.593750,-17.87
2019-08-15 08:27:00.609375,-20.82
2019-08-15 08:27:00.625000,-16.16
2019-08-15 08:27:00.640625,-6.68
2019-08-15 08:27:00.656250,2.91
2019-08-15 08:27:00.671875,8.65
2019-08-15 08:27:00.687500,9.23
2019-08-15 08:27:00.703125,6.58
2019-08-15 08:27:00.718750,4.37
2019-08-15 08:27:00.734375,5.58
2019-08-15 08:27:00.750000,10.59
2019-08-15 08:27:00.765625,16.83
2019-08-15 08:27:00.781250,20.4
2019-08-15 08:27:00.796875,18.35
2019-08-15 08:27:00.812500,10.86
2019-08-15 08:27:00.828125,1.29
2019-08-15 08:27:00.843750,-5.52
2019-08-15 08:27:00.859375,-6.02
2019-08-15 08:27:00.875000,-0.03
2019-08-15 08:27:00.890625,9.01
2019-08-15 08:27:00.906250,15.95
2019-08-15 08:27:00.921875,16.92
2019-08-15 08:27:00.937500,11.34
2019-08-15 08:27:00.953125,2.2
2019-08-15 08:27:00.968750,-5.89
2019-08-15 08:27:00.984375,-9.52
2019-08-15 08:27:01.000000,-8.49
2019-08-15 08:27:01.015625,-5.67
2019-08-15 08:27:01.031250,-5.06
2019-08-15 08:27:01.046875,-9.12
2019-08-15 08:27:01.062500,-16.93
2019-08-15 08:27:01.078125,-24.67
2019-08-15 08:27:01.093750,-27.72
2019-08-15 08:27:01.109375,-23.35
2019-08-15 08:27:01.125000,-12.51
2019-08-15 08:27:01.140625,0.49
2019-08-15 08:27:01.156250,10.13
2019-08-15 08:27:01.171875,12.6
2019-08-15 08:27:01.187500,7.58
2019-08-15 08:27:01.203125,-1.53
2019-08-15 08:27:01.218750,-9.65
2019-08-15 08:27:01.234375,-12.8
2019-08-15 08:27:01.250000,-10.13
2019-08-15 08:27:01.265625,-4.13
2019-08-15 08:27:01.281250,1.17
2019-08-15 08:27:01.296875,2.73
2019-08-15 08:27:01.312500,0.42
2019-08-15 08:27:01.328125,-3.11
2019-08-15 08:27:01.343750,-4.3
2019-08-15 08:27:01.359375,-1.22
2019-08-15 08:27:01.375000,4.98
2019-08-15 08:27:01.390625,10.47
2019-08-15 08:27:01.406250,11.05
2019-08-15 08:27:01.421875,4.91
2019-08-15 08:27:01.437500,-6.05
2019-08-15 08:27:01.453125,-16.95
2019-08-15 08:27:01.468750,-22.49
2019-08-15 08:27:01.484375,-19.66
2019-08-15 08:27:01.500000,-9.43
2019-08-15 08:27:01.515625,3.8
2019-08-15 08:27:01.531250,14.62
2019-08-15 08:27:01.546875,19.16
2019-08-15 08:27:01.562500,16.95
2019-08-15 08:27:01.578125,10.72
2019-08-15 08:27:01.593750,4.51
2019-08-15 08:27:01.609375,1.29
2019-08-15 08:27:01.625000,1.4
2019-08-15 08:27:01.640625,2.59
2019-08-15 08:27:01.656250,1.74
2019-08-15 08:27:01.671875,-2.81
2019-08-15 08:27:01.687500,-10.02
2019-08-15 08:27:01.703125,-16.37
2019-08-15 08:27:01.718750,-17.89
2019-08-15 08:27:01.734375,-12.63
2019-08-15 08:27:01.750000,-2.01
2019-08-15 08:27:01.765625,9.64
2019-08-15 08:27:01.781250,17.23
2019-08-15 08:27:01.796875,17.72
2019-08-15 08:27:01.812500,11.66
2019-08-15 08:27:01.828125,2.81
2019-08-15 08:27:01.843750,-4.11
2019-08-15 08:27:01.859375,-6.04
2019-08-15 08:27:01.875000,-3.19
2019-08-15 08:27:01.890625,1.39
2019-08-15 08:27:01.906250,3.82
2019-08-15 08:27:01.921875,1.95
2019-08-15 08:27:01.937500,-3.33
2019-08-15 08:27:01.953125,-8.7
2019-08-15 08:27:01.968750,-10.57
2019-08-15 08:27:01.984375,-7.2
2019-08-15 08:27:02.000000,0.14
2019-08-15 08:27:02.015625,7.88
2019-08-15 08:27:02.031250,12.29
2019-08-15 08:27:02.046875,11.6
2019-08-15 08:27:02.062500,6.92
2019-08-15 08:27:02.078125,1.48
2019-08-15 08:27:02.093750,-1.46
2019-08-15 08:27:02.109375,-0.45
2019-08-15 08:27:02.125000,3.26
2019-08-15 08:27:02.140625,6.51
2019-08-15 08:27:02.156250,6.25
2019-08-15 08:27:02.171875,1.36
2019-08-15 08:27:02.187500,-6.43
2019-08-15 08:27:02.203125,-13.35
2019-08-15 08:27:02.218750,-15.6
2019-08-15 08:27:02.234375,-11.51
2019-08-15 08:27:02.250000,-2.54
2019-08-15 08:27:02.265625,7.34
2019-08-15 08:27:02.281250,13.64
2019-08-15 08:27:02.296875,13.82
2019-08-15 08:27:02.312500,8.4
2019-08-15 08:27:02.328125,0.63
2019-08-15 08:27:02.343750,-5.55
2019-08-15 08:27:02.359375,-7.75
2019-08-15 08:27:02.375000,-6.35
2019-08-15 08:27:02.390625,-3.99
2019-08-15 08:27:02.406250,-3.68
2019-08-15 08:27:02.421875,-6.75
2019-08-15 08:27:02.437500,-11.85
2019-08-15 08:27:02.453125,-15.65
2019-08-15 08:27:02.468750,-14.81
2019-08-15 08:27:02.484375,-8.08
2019-08-15 08:27:02.500000,2.65
2019-08-15 08:27:02.515625,13.22
2019-08-15 08:27:02.531250,19.16
2019-08-15 08:27:02.546875,18.12
2019-08-15 08:27:02.562500,10.98
2019-08-15 08:27:02.578125,1.46
2019-08-15 08:27:02.593750,-5.84
2019-08-15 08:27:02.609375,-7.68
2019-08-15 08:27:02.625000,-3.78
2019-08-15 08:27:02.640625,3.24
2019-08-15 08:27:02.656250,9.58
2019-08-15 08:27:02.671875,12.3
2019-08-15 08:27:02.687500,10.81
2019-08-15 08:27:02.703125,7.0
2019-08-15 08:27:02.718750,3.73
2019-08-15 08:27:02.734375,2.96
2019-08-15 08:27:02.750000,4.35
2019-08-15 08:27:02.765625,5.64
2019-08-15 08:27:02.781250,4.04
2019-08-15 08:27:02.796875,-1.62
2019-08-15 08:27:02.812500,-9.76
2019-08-15 08:27:02.828125,-16.56
2019-08-15 08:27:02.843750,-18.04
2019-08-15 08:27:02.859375,-12.42
2019-08-15 08:27:02.875000,-1.45
2019-08-15 08:27:02.890625,10.19
2019-08-15 08:27:02.906250,17.38
2019-08-15 08:27:02.921875,17.3
2019-08-15 08:27:02.937500,10.95
2019-08-15 08:27:02.953125,2.47
2019-08-15 08:27:02.968750,-3.42
2019-08-15 08:27:02.984375,-4.11
2019-08-15 08:27:03.000000,-0.65
2019-08-15 08:27:03.015625,3.18
2019-08-15 08:27:03.031250,3.39
2019-08-15 08:27:03.046875,-1.37
2019-08-15 08:27:03.062500,-8.84
2019-08-15 08:27:03.078125,-14.39
2019-08-15 08:27:03.093750,-13.89
2019-08-15 08:27:03.109375,-6.3
2019-08-15 08:27:03.125000,5.4
2019-08-15 08:27:03.140625,15.66
2019-08-15 08:27:03.156250,19.33
2019-08-15 08:27:03.171875,14.46
2019-08-15 08:27:03.187500,3.32
2019-08-15 08:27:03.203125,-8.85
2019-08-15 08:27:03.218750,-16.54
2019-08-15 08:27:03.234375,-16.9
2019-08-15 08:27:03.250000,-11.01
2019-08-15 08:27:03.265625,-2.85
2019-08-15 08:27:03.281250,3.01
2019-08-15 08:27:03.296875,4.11
2019-08-15 08:27:03.312500,1.26
2019-08-15 08:27:03.328125,-2.32
2019-08-15 08:27:03.343750,-3.27
2019-08-15 08:27:03.359375,-0.38
2019-08-15 08:27:03.375000,4.49
2019-08-15 08:27:03.390625,7.57
2019-08-15 08:27:03.406250,5.75
2019-08-15 08:27:03.421875,-1.29
2019-08-15 08:27:03.437500,-10.52
2019-08-15 08:27:03.453125,-17.07
2019-08-15 08:27:03.468750,-17.07
2019-08-15 08:27:03.484375,-9.95
2019-08-15 08:27:03.500000,1.26
2019-08-15 08:27:03.515625,11.55
2019-08-15 08:27:03.531250,16.63
2019-08-15 08:27:03.546875,15.2
2019-08-15 08:27:03.562500,9.29
2019-08-15 08:27:03.578125,2.89
2019-08-15 08:27:03.593750,-0.52
2019-08-15 08:27:03.609375,0.15
2019-08-15 08:27:03.625000,3.11
2019-08-15 08:27:03.640625,4.87
2019-08-15 08:27:03.656250,2.46
2019-08-15 08:27:03.671875,-4.78
2019-08-15 08:27:03.687500,-14.51
2019-08-15 08:27:03.703125,-22.61
2019-08-15 08:27:03.718750,-25.21
2019-08-15 08:27:03.734375,-20.81
2019-08-15 08:27:03.750000,-11.21
2019-08-15 08:27:03.765625,-0.58
2019-08-15 08:27:03.781250,6.7
2019-08-15 08:27:03.796875,8.3
2019-08-15 08:27:03.812500,5.11
2019-08-15 08:27:03.828125,0.39
2019-08-15 08:27:03.843750,-2.33
2019-08-15 08:27:03.859375,-1.48
2019-08-15 08:27:03.875000,1.69
2019-08-15 08:27:03.890625,4.05
2019-08-15 08:27:03.906250,2.81
2019-08-15 08:27:03.921875,-2.47
2019-08-15 08:27:03.937500,-9.34
2019-08-15 08:27:03.953125,-13.77
2019-08-15 08:27:03.968750,-12.52
2019-08-15 08:27:03.984375,-5.2
2019-08-15 08:27:04.000000,5.33
2019-08-15 08:27:04.015625,14.29
2019-08-15 08:27:04.031250,17.63
2019-08-15 08:27:04.046875,14.05
2019-08-15 08:27:04.062500,5.85
2019-08-15 08:27:04.078125,-2.4
2019-08-15 08:27:04.093750,-6.24
2019-08-15 08:27:04.109375,-3.72
2019-08-15 08:27:04.125000,3.71
2019-08-15 08:27:04.140625,12.15
2019-08-15 08:27:04.156250,17.51
2019-08-15 08:27:04.171875,17.73
2019-08-15 08:27:04.187500,13.8
2019-08-15 08:27:04.203125,8.91
2019-08-15 08:27:04.218750,6.31
2019-08-15 08:27:04.234375,7.16
2019-08-15 08:27:04.250000,9.75
2019-08-15 08:27:04.265625,10.59
2019-08-15 08:27:04.281250,6.76
2019-08-15 08:27:04.296875,-1.97
2019-08-15 08:27:04.312500,-12.38
2019-08-15 08:27:04.328125,-19.41
2019-08-15 08:27:04.343750,-18.91
2019-08-15 08:27:04.359375,-10.16
2019-08-15 08:27:04.375000,3.39
2019-08-15 08:27:04.390625,15.78
2019-08-15 08:27:04.406250,21.48
2019-08-15 08:27:04.421875,18.35
2019-08-15 08:27:04.437500,8.57
2019-08-15 08:27:04.453125,-2.71
2019-08-15 08:27:04.468750,-10.31
2019-08-15 08:27:04.484375,-11.81
2019-08-15 08:27:04.500000,-8.51
2019-08-15 08:27:04.515625,-4.19
2019-08-15 08:27:04.531250,-2.48
2019-08-15 08:27:04.546875,-4.53
2019-08-15 08:27:04.562500,-8.41
2019-08-15 08:27:04.578125,-10.63
2019-08-15 08:27:04.593750,-8.56
2019-08-15 08:27:04.609375,-2.38
2019-08-15 08:27:04.625000,4.73
2019-08-15 08:27:04.640625,8.43
2019-08-15 08:27:04.656250,5.87
2019-08-15 08:27:04.671875,-2.46
2019-08-15 08:27:04.687500,-12.69
2019-08-15 08:27:04.703125,-19.57
2019-08-15 08:27:04.718750,-19.37
2019-08-15 08:27:04.734375,-11.86
2019-08-15 08:27:04.750000,-0.47
2019-08-15 08:27:04.765625,9.63
2019-08-15 08:27:04.781250,14.26
2019-08-15 08:27:04.796875,12.23
2019-08-15 08:27:04.812500,5.75
2019-08-15 08:27:04.828125,-1.23
2019-08-15 08:27:04.843750,-5.3
2019-08-15 08:27:04.859375,-5.42
2019-08-15 08:27:04.875000,-3.27
2019-08-15 08:27:04.890625,-1.72
2019-08-15 08:27:04.906250,-2.95
2019-08-15 08:27:04.921875,-6.79
2019-08-15 08:27:04.937500,-10.86
2019-08-15 08:27:04.953125,-11.98
2019-08-15 08:27:04.968750,-8.18
2019-08-15 08:27:04.984375,-0.11
2019-08-15 08:27:05.000000,9.11
2019-08-15 08:27:05.015625,15.38
2019-08-15 08:27:05.031250,15.63
2019-08-15 08:27:05.046875,9.62
2019-08-15 08:27:05.062500,0.06
2019-08-15 08:27:05.078125,-8.67
2019-08-15 08:27:05.093750,-12.65
2019-08-15 08:27:05.109375,-10.42
2019-08-15 08:27:05.125000,-3.57
2019-08-15 08:27:05.140625,4.16
2019-08-15 08:27:05.156250,9.09
2019-08-15 08:27:05.171875,9.5
2019-08-15 08:27:05.187500,6.56
2019-08-15 08:27:05.203125,3.41
2019-08-15 08:27:05.218750,3.08
2019-08-15 08:27:05.234375,6.44
2019-08-15 08:27:05.250000,11.58
2019-08-15 08:27:05.265625,14.79
2019-08-15 08:27:05.281250,12.93
2019-08-15 08:27:05.296875,5.65
2019-08-15 08:27:05.312500,-4.1
2019-08-15 08:27:05.328125,-11.48
2019-08-15 08:27:05.343750,-12.44
2019-08-15 08:27:05.359375,-6.02
2019-08-15 08:27:05.375000,4.8
2019-08-15 08:27:05.390625,14.73
2019-08-15 08:27:05.406250,18.87
2019-08-15 08:27:05.421875,15.46
2019-08-15 08:27:05.437500,6.69
2019-08-15 08:27:05.453125,-2.59
2019-08-15 08:27:05.468750,-7.71
2019-08-15 08:27:05.484375,-6.85
2019-08-15 08:27:05.500000,-1.89
2019-08-15 08:27:05.515625,2.93
2019-08-15 08:27:05.531250,3.76
2019-08-15 08:27:05.546875,-0.33
2019-08-15 08:27:05.562500,-6.81
2019-08-15 08:27:05.578125,-11.29
2019-08-15 08:27:05.593750,-10.3
2019-08-15 08:27:05.609375,-3.73
2019-08-15 08:27:05.625000,5.0
2019-08-15 08:27:05.640625,10.77
2019-08-15 08:27:05.656250,9.74
2019-08-15 08:27:05.671875,1.7
2019-08-15 08:27:05.687500,-9.76
2019-08-15 08:27:05.703125,-19.19
2019-08-15 08:27:05.718750,-22.27
2019-08-15 08:27:05.734375,-18.11
2019-08-15 08:27:05.750000,-9.5
2019-08-15 08:27:05.765625,-1.12
2019-08-15 08:27:05.781250,3.16
2019-08-15 08:27:05.796875,2.5
2019-08-15 08:27:05.812500,-0.83
2019-08-15 08:27:05.828125,-2.97
2019-08-15 08:27:05.843750,-1.09
2019-08-15 08:27:05.859375,4.78
2019-08-15 08:27:05.875000,11.75
2019-08-15 08:27:05.890625,15.71
2019-08-15 08:27:05.906250,13.87
2019-08-15 08:27:05.921875,6.56
2019-08-15 08:27:05.937500,-2.93
2019-08-15 08:27:05.953125,-10.12
2019-08-15 08:27:05.968750,-11.81
2019-08-15 08:27:05.984375,-7.93
2019-08-15 08:27:06.000000,-1.64
2019-08-15 08:27:06.015625,2.54
2019-08-15 08:27:06.031250,1.16
2019-08-15 08:27:06.046875,-6.04
2019-08-15 08:27:06.062500,-15.96
2019-08-15 08:27:06.078125,-23.63
2019-08-15 08:27:06.093750,-24.92
2019-08-15 08:27:06.109375,-18.82
2019-08-15 08:27:06.125000,-7.96
2019-08-15 08:27:06.140625,2.77
2019-08-15 08:27:06.156250,8.98
2019-08-15 08:27:06.171875,9.13
2019-08-15 08:27:06.187500,5.27
2019-08-15 08:27:06.203125,1.7
2019-08-15 08:27:06.218750,2.18
2019-08-15 08:27:06.234375,7.63
2019-08-15 08:27:06.250000,15.54
2019-08-15 08:27:06.265625,21.44
2019-08-15 08:27:06.281250,21.58
2019-08-15 08:27:06.296875,15.36
2019-08-15 08:27:06.312500,5.67
2019-08-15 08:27:06.328125,-2.68
2019-08-15 08:27:06.343750,-5.83
2019-08-15 08:27:06.359375,-3.11
2019-08-15 08:27:06.375000,2.74
2019-08-15 08:27:06.390625,7.31
2019-08-15 08:27:06.406250,7.23
2019-08-15 08:27:06.421875,2.3
2019-08-15 08:27:06.437500,-4.4
2019-08-15 08:27:06.453125,-8.41
2019-08-15 08:27:06.468750,-6.53
2019-08-15 08:27:06.484375,1.32
2019-08-15 08:27:06.500000,11.97
2019-08-15 08:27:06.515625,20.75
2019-08-15 08:27:06.531250,23.95
2019-08-15 08:27:06.546875,20.78
2019-08-15 08:27:06.562500,13.45
2019-08-15 08:27:06.578125,5.81
2019-08-15 08:27:06.593750,1.08
2019-08-15 08:27:06.609375,0.09
2019-08-15 08:27:06.625000,1.14
2019-08-15 08:27:06.640625,1.22
2019-08-15 08:27:06.656250,-1.98
2019-08-15 08:27:06.671875,-8.48
2019-08-15 08:27:06.687500,-15.85
2019-08-15 08:27:06.703125,-20.53
2019-08-15 08:27:06.718750,-19.9
2019-08-15 08:27:06.734375,-14.01
2019-08-15 08:27:06.750000,-5.68
2019-08-15 08:27:06.765625,1.06
2019-08-15 08:27:06.781250,3.22
2019-08-15 08:27:06.796875,0.6
2019-08-15 08:27:06.812500,-4.14
2019-08-15 08:27:06.828125,-7.29
2019-08-15 08:27:06.843750,-6.39
2019-08-15 08:27:06.859375,-1.82
2019-08-15 08:27:06.875000,3.38
2019-08-15 08:27:06.890625,5.44
2019-08-15 08:27:06.906250,2.23
2019-08-15 08:27:06.921875,-5.26
2019-08-15 08:27:06.937500,-13.39
2019-08-15 08:27:06.953125,-17.77
2019-08-15 08:27:06.968750,-15.88
2019-08-15 08:27:06.984375,-8.43
2019-08-15 08:27:07.000000,1.07
2019-08-15 08:27:07.015625,8.17
2019-08-15 08:27:07.031250,9.97
2019-08-15 08:27:07.046875,6.66
2019-08-15 08:27:07.062500,1.15
2019-08-15 08:27:07.078125,-2.74
2019-08-15 08:27:07.093750,-2.52
2019-08-15 08:27:07.109375,1.45
2019-08-15 08:27:07.125000,6.21
2019-08-15 08:27:07.140625,7.98
2019-08-15 08:27:07.156250,4.52
2019-08-15 08:27:07.171875,-3.36
2019-08-15 08:27:07.187500,-12.02
2019-08-15 08:27:07.203125,-16.94
2019-08-15 08:27:07.218750,-15.19
2019-08-15 08:27:07.234375,-7.08
2019-08-15 08:27:07.250000,3.82
2019-08-15 08:27:07.265625,12.55
2019-08-15 08:27:07.281250,15.31
2019-08-15 08:27:07.296875,11.38
2019-08-15 08:27:07.312500,3.3
2019-08-15 08:27:07.328125,-4.56
2019-08-15 08:27:07.343750,-8.57
2019-08-15 08:27:07.359375,-7.6
2019-08-15 08:27:07.375000,-3.35
2019-08-15 08:27:07.390625,1.01
2019-08-15 08:27:07.406250,2.99
2019-08-15 08:27:07.421875,2.3
2019-08-15 08:27:07.437500,0.93
2019-08-15 08:27:07.453125,1.51
2019-08-15 08:27:07.468750,5.34
2019-08-15 08:27:07.484375,11.1
2019-08-15 08:27:07.500000,15.47
2019-08-15 08:27:07.515625,15.0
2019-08-15 08:27:07.531250,8.51
2019-08-15 08:27:07.546875,-1.69
2019-08-15 08:27:07.562500,-10.77
2019-08-15 08:27:07.578125,-13.86
2019-08-15 08:27:07.593750,-9.04
2019-08-15 08:27:07.609375,1.33
2019-08-15 08:27:07.625000,11.64
2019-08-15 08:27:07.640625,15.93
2019-08-15 08:27:07.656250,11.27
2019-08-15 08:27:07.671875,-0.47
2019-08-15 08:27:07.687500,-13.5
2019-08-15 08:27:07.703125,-21.23
2019-08-15 08:27:07.718750,-19.81
2019-08-15 08:27:07.734375,-10.15
2019-08-15 08:27:07.750000,2.72
2019-08-15 08:27:07.765625,12.49
2019-08-15 08:27:07.781250,14.98
2019-08-15 08:27:07.796875,10.28
2019-08-15 08:27:07.812500,2.19
2019-08-15 08:27:07.828125,-4.09
2019-08-15 08:27:07.843750,-5.03
2019-08-15 08:27:07.859375,-0.59
2019-08-15 08:27:07.875000,6.03
2019-08-15 08:27:07.890625,10.49
2019-08-15 08:27:07.906250,9.93
2019-08-15 08:27:07.921875,4.6
2019-08-15 08:27:07.937500,-2.46
2019-08-15 08:27:07.953125,-7.31
2019-08-15 08:27:07.968750,-7.4
2019-08-15 08:27:07.984375,-3.16
2019-08-15 08:27:08.000000,2.47
2019-08-15 08:27:08.015625,5.64
2019-08-15 08:27:08.031250,4.08
2019-08-15 08:27:08.046875,-1.56
2019-08-15 08:27:08.062500,-8.15
2019-08-15 08:27:08.078125,-11.86
2019-08-15 08:27:08.093750,-10.61
2019-08-15 08:27:08.109375,-5.26
2019-08-15 08:27:08.125000,0.85
2019-08-15 08:27:08.140625,4.0
2019-08-15 08:27:08.156250,2.32
2019-08-15 08:27:08.171875,-2.99
2019-08-15 08:27:08.187500,-8.41
2019-08-15 08:27:08.203125,-10.23
2019-08-15 08:27:08.218750,-6.84
2019-08-15 08:27:08.234375,0.11
2019-08-15 08:27:08.250000,6.57
2019-08-15 08:27:08.265625,8.42
2019-08-15 08:27:08.281250,3.97
2019-08-15 08:27:08.296875,-4.78
2019-08-15 08:27:08.312500,-13.03
2019-08-15 08:27:08.328125,-15.89
2019-08-15 08:27:08.343750,-11.18
2019-08-15 08:27:08.359375,-0.85
2019-08-15 08:27:08.375000,9.77
2019-08-15 08:27:08.390625,14.99
2019-08-15 08:27:08.406250,11.82
2019-08-15 08:27:08.421875,1.91
2019-08-15 08:27:08.437500,-9.35
2019-08-15 08:27:08.453125,-15.71
2019-08-15 08:27:08.468750,-13.5
2019-08-15 08:27:08.484375,-3.67
2019-08-15 08:27:08.500000,8.93
2019-08-15 08:27:08.515625,18.11
2019-08-15 08:27:08.531250,19.82
2019-08-15 08:27:08.546875,14.16
2019-08-15 08:27:08.562500,4.91
2019-08-15 08:27:08.578125,-2.74
2019-08-15 08:27:08.593750,-5.22
2019-08-15 08:27:08.609375,-2.33
2019-08-15 08:27:08.625000,2.94
2019-08-15 08:27:08.640625,6.55
2019-08-15 08:27:08.656250,5.96
2019-08-15 08:27:08.671875,1.7
2019-08-15 08:27:08.687500,-3.03
2019-08-15 08:27:08.703125,-4.49
2019-08-15 08:27:08.718750,-0.88
2019-08-15 08:27:08.734375,6.32
2019-08-15 08:27:08.750000,12.92
2019-08-15 08:27:08.765625,14.48
2019-08-15 08:27:08.781250,9.06
2019-08-15 08:27:08.796875,-1.38
2019-08-15 08:27:08.812500,-11.74
2019-08-15 08:27:08.828125,-16.61
2019-08-15 08:27:08.843750,-13.46
2019-08-15 08:27:08.859375,-4.07
2019-08-15 08:27:08.875000,6.15
2019-08-15 08:27:08.890625,11.41
2019-08-15 08:27:08.906250,8.69
2019-08-15 08:27:08.921875,-0.47
2019-08-15 08:27:08.937500,-10.88
2019-08-15 08:27:08.953125,-16.63
2019-08-15 08:27:08.968750,-14.42
2019-08-15 08:27:08.984375,-5.27
2019-08-15 08:27:09.000000,6.4
2019-08-15 08:27:09.015625,15.16
2019-08-15 08:27:09.031250,17.57
2019-08-15 08:27:09.046875,13.82
2019-08-15 08:27:09.062500,7.04
2019-08-15 08:27:09.078125,1.28
2019-08-15 08:27:09.093750,-0.85
2019-08-15 08:27:09.109375,0.51
2019-08-15 08:27:09.125000,2.92
2019-08-15 08:27:09.140625,3.49
2019-08-15 08:27:09.156250,0.93
2019-08-15 08:27:09.171875,-3.68
2019-08-15 08:27:09.187500,-7.38
2019-08-15 08:27:09.203125,-7.37
2019-08-15 08:27:09.218750,-2.99
2019-08-15 08:27:09.234375,3.59
2019-08-15 08:27:09.250000,8.46
2019-08-15 08:27:09.265625,8.09
2019-08-15 08:27:09.281250,1.84
2019-08-15 08:27:09.296875,-7.4
2019-08-15 08:27:09.312500,-14.55
2019-08-15 08:27:09.328125,-15.05
2019-08-15 08:27:09.343750,-7.78
2019-08-15 08:27:09.359375,4.08
2019-08-15 08:27:09.375000,14.44
2019-08-15 08:27:09.390625,17.53
2019-08-15 08:27:09.406250,11.16
2019-08-15 08:27:09.421875,-2.04
2019-08-15 08:27:09.437500,-15.88
2019-08-15 08:27:09.453125,-23.9
2019-08-15 08:27:09.468750,-22.71
2019-08-15 08:27:09.484375,-13.57
2019-08-15 08:27:09.500000,-1.45
2019-08-15 08:27:09.515625,7.91
2019-08-15 08:27:09.531250,10.98
2019-08-15 08:27:09.546875,8.06
2019-08-15 08:27:09.562500,2.49
2019-08-15 08:27:09.578125,-1.68
2019-08-15 08:27:09.593750,-2.12
2019-08-15 08:27:09.609375,0.71
2019-08-15 08:27:09.625000,4.26
2019-08-15 08:27:09.640625,5.76
2019-08-15 08:27:09.656250,4.28
2019-08-15 08:27:09.671875,1.11
2019-08-15 08:27:09.687500,-0.98
2019-08-15 08:27:09.703125,0.29
2019-08-15 08:27:09.718750,5.03
2019-08-15 08:27:09.734375,10.87
2019-08-15 08:27:09.750000,14.33
2019-08-15 08:27:09.765625,12.72
2019-08-15 08:27:09.781250,6.16
2019-08-15 08:27:09.796875,-2.31
2019-08-15 08:27:09.812500,-8.27
2019-08-15 08:27:09.828125,-8.34
2019-08-15 08:27:09.843750,-2.38
2019-08-15 08:27:09.859375,6.21
2019-08-15 08:27:09.875000,12.2
2019-08-15 08:27:09.890625,11.49
2019-08-15 08:27:09.906250,3.46
2019-08-15 08:27:09.921875,-8.41
2019-08-15 08:27:09.937500,-18.42
2019-08-15 08:27:09.953125,-21.63
2019-08-15 08:27:09.968750,-16.5
2019-08-15 08:27:09.984375,-5.56
2019-08-15 08:27:10.000000,6.04
2019-08-15 08:27:10.015625,13.33
2019-08-15 08:27:10.031250,13.91
2019-08-15 08:27:10.046875,8.78
2019-08-15 08:27:10.062500,1.37
2019-08-15 08:27:10.078125,-4.46
2019-08-15 08:27:10.093750,-6.51
2019-08-15 08:27:10.109375,-4.97
2019-08-15 08:27:10.125000,-1.89
2019-08-15 08:27:10.140625,0.14
2019-08-15 08:27:10.156250,-0.21
2019-08-15 08:27:10.171875,-2.52
2019-08-15 08:27:10.187500,-4.91
2019-08-15 08:27:10.203125,-5.42
2019-08-15 08:27:10.218750,-3.43
2019-08-15 08:27:10.234375,-0.32
2019-08-15 08:27:10.250000,1.26
2019-08-15 08:27:10.265625,-0.91
2019-08-15 08:27:10.281250,-6.9
2019-08-15 08:27:10.296875,-14.0
2019-08-15 08:27:10.312500,-18.04
2019-08-15 08:27:10.328125,-15.69
2019-08-15 08:27:10.343750,-6.72
2019-08-15 08:27:10.359375,5.35
2019-08-15 08:27:10.375000,14.87
2019-08-15 08:27:10.390625,17.11
2019-08-15 08:27:10.406250,10.95
2019-08-15 08:27:10.421875,-0.31
2019-08-15 08:27:10.437500,-10.64
2019-08-15 08:27:10.453125,-14.49
2019-08-15 08:27:10.468750,-9.76
2019-08-15 08:27:10.484375,1.15
2019-08-15 08:27:10.500000,12.64
2019-08-15 08:27:10.515625,19.05
2019-08-15 08:27:10.531250,17.53
2019-08-15 08:27:10.546875,9.4
2019-08-15 08:27:10.562500,-0.79
2019-08-15 08:27:10.578125,-7.83
2019-08-15 08:27:10.593750,-8.7
2019-08-15 08:27:10.609375,-3.84
2019-08-15 08:27:10.625000,3.43
2019-08-15 08:27:10.640625,9.02
2019-08-15 08:27:10.656250,10.46
2019-08-15 08:27:10.671875,8.01
2019-08-15 08:27:10.687500,4.16
2019-08-15 08:27:10.703125,1.79
2019-08-15 08:27:10.718750,2.18
2019-08-15 08:27:10.734375,4.18
2019-08-15 08:27:10.750000,5.02
2019-08-15 08:27:10.765625,2.16
2019-08-15 08:27:10.781250,-4.71
2019-08-15 08:27:10.796875,-13.07
2019-08-15 08:27:10.812500,-18.63
2019-08-15 08:27:10.828125,-17.79
2019-08-15 08:27:10.843750,-9.84
2019-08-15 08:27:10.859375,2.14
2019-08-15 08:27:10.875000,12.61
2019-08-15 08:27:10.890625,16.38
2019-08-15 08:27:10.906250,11.44
2019-08-15 08:27:10.921875,0.3
2019-08-15 08:27:10.937500,-11.35
2019-08-15 08:27:10.953125,-17.65
2019-08-15 08:27:10.968750,-15.76
2019-08-15 08:27:10.984375,-7.28
2019-08-15 08:27:11.000000,2.78
2019-08-15 08:27:11.015625,9.15
2019-08-15 08:27:11.031250,9.28
2019-08-15 08:27:11.046875,4.55
2019-08-15 08:27:11.062500,-0.92
2019-08-15 08:27:11.078125,-3.15
2019-08-15 08:27:11.093750,-0.89
2019-08-15 08:27:11.109375,3.73
2019-08-15 08:27:11.125000,6.7
2019-08-15 08:27:11.140625,5.05
2019-08-15 08:27:11.156250,-1.06
2019-08-15 08:27:11.171875,-8.25
2019-08-15 08:27:11.187500,-11.78
2019-08-15 08:27:11.203125,-8.59
2019-08-15 08:27:11.218750,0.73
2019-08-15 08:27:11.234375,11.97
2019-08-15 08:27:11.250000,19.56
2019-08-15 08:27:11.265625,19.55
2019-08-15 08:27:11.281250,11.81
2019-08-15 08:27:11.296875,0.11
2019-08-15 08:27:11.312500,-9.88
2019-08-15 08:27:11.328125,-13.63
2019-08-15 08:27:11.343750,-9.95
2019-08-15 08:27:11.359375,-1.47
2019-08-15 08:27:11.375000,7.07
2019-08-15 08:27:11.390625,11.49
2019-08-15 08:27:11.406250,10.33
2019-08-15 08:27:11.421875,5.38
2019-08-15 08:27:11.437500,0.35
2019-08-15 08:27:11.453125,-1.53
2019-08-15 08:27:11.468750,0.48
2019-08-15 08:27:11.484375,4.33
2019-08-15 08:27:11.500000,6.51
2019-08-15 08:27:11.515625,4.32
2019-08-15 08:27:11.531250,-2.19
2019-08-15 08:27:11.546875,-10.01
2019-08-15 08:27:11.562500,-14.73
2019-08-15 08:27:11.578125,-13.12
2019-08-15 08:27:11.593750,-5.13
2019-08-15 08:27:11.609375,5.78
2019-08-15 08:27:11.625000,14.3
2019-08-15 08:27:11.640625,16.08
2019-08-15 08:27:11.656250,10.06
2019-08-15 08:27:11.671875,-0.88
2019-08-15 08:27:11.687500,-11.47
2019-08-15 08:27:11.703125,-16.84
2019-08-15 08:27:11.718750,-15.07
2019-08-15 08:27:11.734375,-8.06
2019-08-15 08:27:11.750000,-0.21
2019-08-15 08:27:11.765625,4.25
2019-08-15 08:27:11.781250,3.69
2019-08-15 08:27:11.796875,-0.22
2019-08-15 08:27:11.812500,-3.79
2019-08-15 08:27:11.828125,-3.9
2019-08-15 08:27:11.843750,0.0
2019-08-15 08:27:11.859375,5.35
2019-08-15 08:27:11.875000,8.04
2019-08-15 08:27:11.890625,5.13
2019-08-15 08:27:11.906250,-3.2
2019-08-15 08:27:11.921875,-13.4
2019-08-15 08:27:11.937500,-20.32
2019-08-15 08:27:11.953125,-20.04
2019-08-15 08:27:11.968750,-12.03
2019-08-15 08:27:11.984375,0.3
2019-08-15 08:27:12.000000,11.47
2019-08-15 08:27:12.015625,16.62
2019-08-15 08:27:12.031250,14.02
2019-08-15 08:27:12.046875,5.76
2019-08-15 08:27:12.062500,-3.52
2019-08-15 08:27:12.078125,-9.18
2019-08-15 08:27:12.093750,-9.12
2019-08-15 08:27:12.109375,-4.41
2019-08-15 08:27:12.125000,1.48
2019-08-15 08:27:12.140625,5.02
2019-08-15 08:27:12.156250,4.74
2019-08-15 08:27:12.171875,1.93
2019-08-15 08:27:12.187500,-0.44
2019-08-15 08:27:12.203125,0.22
2019-08-15 08:27:12.218750,4.2
2019-08-15 08:27:12.234375,9.16
2019-08-15 08:27:12.250000,11.45
2019-08-15 08:27:12.265625,8.48
2019-08-15 08:27:12.281250,0.63
2019-08-15 08:27:12.296875,-8.53
2019-08-15 08:27:12.312500,-14.02
2019-08-15 08:27:12.328125,-12.32
2019-08-15 08:27:12.343750,-3.43
2019-08-15 08:27:12.359375,8.77
2019-08-15 08:27:12.375000,18.4
2019-08-15 08:27:12.390625,20.74
2019-08-15 08:27:12.406250,14.7
2019-08-15 08:27:12.421875,3.3
2019-08-15 08:27:12.437500,-7.96
2019-08-15 08:27:12.453125,-14.15
2019-08-15 08:27:12.468750,-13.41
2019-08-15 08:27:12.484375,-7.8
2019-08-15 08:27:12.500000,-1.73
2019-08-15 08:27:12.515625,0.78
2019-08-15 08:27:12.531250,-1.48
2019-08-15 08:27:12.546875,-6.39
2019-08-15 08:27:12.562500,-9.9
2019-08-15 08:27:12.578125,-8.69
2019-08-15 08:27:12.593750,-2.36
2019-08-15 08:27:12.609375,6.22
2019-08-15 08:27:12.625000,12.42
2019-08-15 08:27:12.640625,12.63
2019-08-15 08:27:12.656250,6.39
2019-08-15 08:27:12.671875,-3.15
2019-08-15 08:27:12.687500,-11.05
2019-08-15 08:27:12.703125,-13.4
2019-08-15 08:27:12.718750,-9.58
2019-08-15 08:27:12.734375,-2.52
2019-08-15 08:27:12.750000,3.1
2019-08-15 08:27:12.765625,3.81
2019-08-15 08:27:12.781250,-0.6
2019-08-15 08:27:12.796875,-6.97
2019-08-15 08:27:12.812500,-10.84
2019-08-15 08:27:12.828125,-9.3
2019-08-15 08:27:12.843750,-2.94
2019-08-15 08:27:12.859375,4.34
2019-08-15 08:27:12.875000,7.68
2019-08-15 08:27:12.890625,4.19
2019-08-15 08:27:12.906250,-5.06
2019-08-15 08:27:12.921875,-15.45
2019-08-15 08:27:12.937500,-21.3
2019-08-15 08:27:12.953125,-18.97
2019-08-15 08:27:12.968750,-8.88
2019-08-15 08:27:12.984375,4.71
2019-08-15 08:27:13.000000,16.0
2019-08-15 08:27:13.015625,20.6
2019-08-15 08:27:13.031250,17.63
2019-08-15 08:27:13.046875,9.83
2019-08-15 08:27:13.062500,1.82
2019-08-15 08:27:13.078125,-2.55
2019-08-15 08:27:13.093750,-2.12
2019-08-15 08:27:13.109375,1.32
2019-08-15 08:27:13.125000,4.36
2019-08-15 08:27:13.140625,4.33
2019-08-15 08:27:13.156250,0.97
2019-08-15 08:27:13.171875,-3.42
2019-08-15 08:27:13.187500,-5.32
2019-08-15 08:27:13.203125,-2.32
2019-08-15 08:27:13.218750,5.28
2019-08-15 08:27:13.234375,14.4
2019-08-15 08:27:13.250000,20.64
2019-08-15 08:27:13.265625,20.67
2019-08-15 08:27:13.281250,14.05
2019-08-15 08:27:13.296875,3.5
2019-08-15 08:27:13.312500,-6.42
2019-08-15 08:27:13.328125,-11.68
2019-08-15 08:27:13.343750,-10.74
2019-08-15 08:27:13.359375,-5.23
2019-08-15 08:27:13.375000,1.21
2019-08-15 08:27:13.390625,5.14
2019-08-15 08:27:13.406250,5.09
2019-08-15 08:27:13.421875,2.39
2019-08-15 08:27:13.437500,-0.13
2019-08-15 08:27:13.453125,0.01
2019-08-15 08:27:13.468750,3.09
2019-08-15 08:27:13.484375,6.86
2019-08-15 08:27:13.500000,7.92
2019-08-15 08:27:13.515625,3.95
2019-08-15 08:27:13.531250,-4.51
2019-08-15 08:27:13.546875,-13.89
2019-08-15 08:27:13.562500,-19.4
2019-08-15 08:27:13.578125,-17.68
2019-08-15 08:27:13.593750,-8.9
2019-08-15 08:27:13.609375,3.01
2019-08-15 08:27:13.625000,12.2
2019-08-15 08:27:13.640625,14.14
2019-08-15 08:27:13.656250,7.93
2019-08-15 08:27:13.671875,-3.05
2019-08-15 08:27:13.687500,-12.99
2019-08-15 08:27:13.703125,-16.67
2019-08-15 08:27:13.718750,-12.25
2019-08-15 08:27:13.734375,-2.03
2019-08-15 08:27:13.750000,8.85
2019-08-15 08:27:13.765625,15.27
2019-08-15 08:27:13.781250,14.86
2019-08-15 08:27:13.796875,8.92
2019-08-15 08:27:13.812500,1.59
2019-08-15 08:27:13.828125,-2.81
2019-08-15 08:27:13.843750,-2.13
2019-08-15 08:27:13.859375,2.59
2019-08-15 08:27:13.875000,7.92
2019-08-15 08:27:13.890625,10.35
2019-08-15 08:27:13.906250,8.37
2019-08-15 08:27:13.921875,3.36
2019-08-15 08:27:13.937500,-1.43
2019-08-15 08:27:13.953125,-2.97
2019-08-15 08:27:13.968750,-0.44
2019-08-15 08:27:13.984375,4.3
2019-08-15 08:27:14.000000,7.75
2019-08-15 08:27:14.015625,7.09
2019-08-15 08:27:14.031250,2.04
2019-08-15 08:27:14.046875,-4.88
2019-08-15 08:27:14.062500,-9.9
2019-08-15 08:27:14.078125,-10.28
2019-08-15 08:27:14.093750,-6.07
2019-08-15 08:27:14.109375,-0.06
2019-08-15 08:27:14.125000,3.92
2019-08-15 08:27:14.140625,3.48
2019-08-15 08:27:14.156250,-0.93
2019-08-15 08:27:14.171875,-6.2
2019-08-15 08:27:14.187500,-8.61
2019-08-15 08:27:14.203125,-6.15
2019-08-15 08:27:14.218750,0.06
2019-08-15 08:27:14.234375,6.28
2019-08-15 08:27:14.250000,8.3
2019-08-15 08:27:14.265625,4.05
2019-08-15 08:27:14.281250,-4.95
2019-08-15 08:27:14.296875,-14.11
2019-08-15 08:27:14.312500,-18.28
2019-08-15 08:27:14.328125,-14.69
2019-08-15 08:27:14.343750,-4.63
2019-08-15 08:27:14.359375,7.06
2019-08-15 08:27:14.375000,14.57
2019-08-15 08:27:14.390625,14.26
2019-08-15 08:27:14.406250,6.63
2019-08-15 08:27:14.421875,-4.01
2019-08-15 08:27:14.437500,-11.96
2019-08-15 08:27:14.453125,-13.25
2019-08-15 08:27:14.468750,-7.62
