2019-08-06 20:53:58.000000,-0.0
2019-08-06 20:53:58.015625,-0.0
2019-08-06 20:53:58.031250,-0.0
2019-08-06 20:53:58.046875,-0.0
2019-08-06 20:53:58.062500,-0.0
2019-08-06 20:53:58.078125,-0.0
2019-08-06 20:53:58.093750,-0.0
2019-08-06 20:53:58.109375,-0.0
2019-08-06 20:53:58.125000,-0.0
2019-08-06 20:53:58.140625,-0.0
2019-08-06 20:53:58.156250,0.0
2019-08-06 20:53:58.171875,0.01
2019-08-06 20:53:58.187500,0.01
2019-08-06 20:53:58.203125,-0.0
2019-08-06 20:53:58.218750,-0.03
2019-08-06 20:53:58.234375,-0.05
2019-08-06 20:53:58.250000,-0.05
2019-08-06 20:53:58.265625,0.0
2019-08-06 20:53:58.281250,0.13
2019-08-06 20:53:58.296875,0.36
2019-08-06 20:53:58.312500,0.66
2019-08-06 20:53:58.328125,1.01
2019-08-06 20:53:58.343750,1.37
2019-08-06 20:53:58.359375,1.72
2019-08-06 20:53:58.375000,2.06
2019-08-06 20:53:58.390625,2.4
2019-08-06 20:53:58.406250,2.79
2019-08-06 20:53:58.421875,3.24
2019-08-06 20:53:58.437500,3.8
2019-08-06 20:53:58.453125,4.43
2019-08-06 20:53:58.468750,5.08
2019-08-06 20:53:58.484375,5.7
2019-08-06 20:53:58.500000,6.28
2019-08-06 20:53:58.515625,6.81
2019-08-06 20:53:58.531250,7.37
2019-08-06 20:53:58.546875,8.04
2019-08-06 20:53:58.562500,8.85
2019-08-06 20:53:58.578125,9.92
2019-08-06 20:53:58.593750,11.16
2019-08-06 20:53:58.609375,12.47
2019-08-06 20:53:58.625000,13.72
2019-08-06 20:53:58.640625,14.87
2019-08-06 20:53:58.656250,15.96
2019-08-06 20:53:58.671875,17.15
2019-08-06 20:53:58.687500,18.65
2019-08-06 20:53:58.703125,20.62
2019-08-06 20:53:58.718750,23.27
2019-08-06 20:53:58.734375,26.42
2019-08-06 20:53:58.750000,29.79
2019-08-06 20:53:58.765625,33.09
2019-08-06 20:53:58.781250,36.16
2019-08-06 20:53:58.796875,39.08
2019-08-06 20:53:58.812500,42.18
2019-08-06 20:53:58.828125,45.91
2019-08-06 20:53:58.843750,50.57
2019-08-06 20:53:58.859375,56.58
2019-08-06 20:53:58.875000,63.56
2019-08-06 20:53:58.890625,71.02
2019-08-06 20:53:58.906250,78.39
2019-08-06 20:53:58.921875,85.34
2019-08-06 20:53:58.937500,91.96
2019-08-06 20:53:58.953125,98.77
2019-08-06 20:53:58.968750,106.47
2019-08-06 20:53:58.984375,115.59
2019-08-06 20:53:59.000000,126.66
2019-08-06 20:53:59.015625,139.17
2019-08-06 20:53:59.031250,152.34
2019-08-06 20:53:59.046875,165.33
2019-08-06 20:53:59.062500,177.64
2019-08-06 20:53:59.078125,189.37
2019-08-06 20:53:59.093750,201.17
2019-08-06 20:53:59.109375,214.39
2019-08-06 20:53:59.125000,227.72
2019-08-06 20:53:59.140625,243.44
2019-08-06 20:53:59.156250,262.13
2019-08-06 20:53:59.171875,283.94
2019-08-06 20:53:59.187500,307.72
2019-08-06 20:53:59.203125,330.61
2019-08-06 20:53:59.218750,348.35
2019-08-06 20:53:59.234375,356.28
2019-08-06 20:53:59.250000,351.0
2019-08-06 20:53:59.265625,331.59
2019-08-06 20:53:59.281250,300.42
2019-08-06 20:53:59.296875,261.32
2019-08-06 20:53:59.312500,218.67
2019-08-06 20:53:59.328125,175.79
2019-08-06 20:53:59.343750,134.33
2019-08-06 20:53:59.359375,94.59
2019-08-06 20:53:59.375000,56.35
2019-08-06 20:53:59.390625,19.68
2019-08-06 20:53:59.406250,-14.86
2019-08-06 20:53:59.421875,-46.19
2019-08-06 20:53:59.437500,-73.79
2019-08-06 20:53:59.453125,-97.7
2019-08-06 20:53:59.468750,-118.27
2019-08-06 20:53:59.484375,-135.87
2019-08-06 20:53:59.500000,-150.58
2019-08-06 20:53:59.515625,-162.4
2019-08-06 20:53:59.531250,-171.22
2019-08-06 20:53:59.546875,-177.24
2019-08-06 20:53:59.562500,-180.8
2019-08-06 20:53:59.578125,-182.75
2019-08-06 20:53:59.593750,-183.96
2019-08-06 20:53:59.609375,-185.14
2019-08-06 20:53:59.625000,-186.73
2019-08-06 20:53:59.640625,-188.64
2019-08-06 20:53:59.656250,-190.78
2019-08-06 20:53:59.671875,-193.15
2019-08-06 20:53:59.687500,-195.93
2019-08-06 20:53:59.703125,-199.22
2019-08-06 20:53:59.718750,-203.14
2019-08-06 20:53:59.734375,-207.59
2019-08-06 20:53:59.750000,-212.3
2019-08-06 20:53:59.765625,-217.08
2019-08-06 20:53:59.781250,-221.89
2019-08-06 20:53:59.796875,-227.03
2019-08-06 20:53:59.812500,-232.89
2019-08-06 20:53:59.828125,-239.7
2019-08-06 20:53:59.843750,-247.52
2019-08-06 20:53:59.859375,-256.42
2019-08-06 20:53:59.875000,-266.74
2019-08-06 20:53:59.890625,-279.03
2019-08-06 20:53:59.906250,-293.55
2019-08-06 20:53:59.921875,-309.37
2019-08-06 20:53:59.937500,-323.98
2019-08-06 20:53:59.953125,-333.57
2019-08-06 20:53:59.968750,-334.46
2019-08-06 20:53:59.984375,-324.85
2019-08-06 20:54:00.000000,-305.8
2019-08-06 20:54:00.015625,-280.85
2019-08-06 20:54:00.031250,-254.17
2019-08-06 20:54:00.046875,-228.61
2019-08-06 20:54:00.062500,-204.67
2019-08-06 20:54:00.078125,-181.17
2019-08-06 20:54:00.093750,-156.81
2019-08-06 20:54:00.109375,-131.87
2019-08-06 20:54:00.125000,-108.42
2019-08-06 20:54:00.140625,-89.18
2019-08-06 20:54:00.156250,-75.64
2019-08-06 20:54:00.171875,-66.81
2019-08-06 20:54:00.187500,-59.56
2019-08-06 20:54:00.203125,-50.39
2019-08-06 20:54:00.218750,-37.44
2019-08-06 20:54:00.234375,-21.55
2019-08-06 20:54:00.250000,-5.78
2019-08-06 20:54:00.265625,6.33
2019-08-06 20:54:00.281250,12.82
2019-08-06 20:54:00.296875,14.39
2019-08-06 20:54:00.312500,13.94
2019-08-06 20:54:00.328125,14.98
2019-08-06 20:54:00.343750,19.66
2019-08-06 20:54:00.359375,27.56
2019-08-06 20:54:00.375000,36.17
2019-08-06 20:54:00.390625,42.43
2019-08-06 20:54:00.406250,44.63
2019-08-06 20:54:00.421875,43.44
2019-08-06 20:54:00.437500,41.36
2019-08-06 20:54:00.453125,41.22
2019-08-06 20:54:00.468750,44.38
2019-08-06 20:54:00.484375,49.76
2019-08-06 20:54:00.500000,54.53
2019-08-06 20:54:00.515625,55.78
2019-08-06 20:54:00.531250,52.34
2019-08-06 20:54:00.546875,45.65
2019-08-06 20:54:00.562500,39.06
2019-08-06 20:54:00.578125,35.85
2019-08-06 20:54:00.593750,37.41
2019-08-06 20:54:00.609375,42.42
2019-08-06 20:54:00.625000,47.6
2019-08-06 20:54:00.640625,49.65
2019-08-06 20:54:00.656250,47.04
2019-08-06 20:54:00.671875,40.93
2019-08-06 20:54:00.687500,34.43
2019-08-06 20:54:00.703125,30.71
2019-08-06 20:54:00.718750,31.14
2019-08-06 20:54:00.734375,34.48
2019-08-06 20:54:00.750000,37.61
2019-08-06 20:54:00.765625,37.55
2019-08-06 20:54:00.781250,33.29
2019-08-06 20:54:00.796875,26.48
2019-08-06 20:54:00.812500,20.48
2019-08-06 20:54:00.828125,18.38
2019-08-06 20:54:00.843750,21.19
2019-08-06 20:54:00.859375,27.16
2019-08-06 20:54:00.875000,32.64
2019-08-06 20:54:00.890625,34.17
2019-08-06 20:54:00.906250,30.33
2019-08-06 20:54:00.921875,22.69
2019-08-06 20:54:00.937500,14.75
2019-08-06 20:54:00.953125,10.11
2019-08-06 20:54:00.968750,10.46
2019-08-06 20:54:00.984375,14.68
2019-08-06 20:54:01.000000,19.54
2019-08-06 20:54:01.015625,21.61
2019-08-06 20:54:01.031250,19.18
2019-08-06 20:54:01.046875,13.29
2019-08-06 20:54:01.062500,7.16
2019-08-06 20:54:01.078125,4.21
2019-08-06 20:54:01.093750,5.95
2019-08-06 20:54:01.109375,11.07
2019-08-06 20:54:01.125000,16.05
2019-08-06 20:54:01.140625,17.41
2019-08-06 20:54:01.156250,13.65
2019-08-06 20:54:01.171875,6.29
2019-08-06 20:54:01.187500,-0.98
2019-08-06 20:54:01.203125,-4.6
2019-08-06 20:54:01.218750,-3.12
2019-08-06 20:54:01.234375,1.88
2019-08-06 20:54:01.250000,6.79
2019-08-06 20:54:01.265625,8.12
2019-08-06 20:54:01.281250,4.51
2019-08-06 20:54:01.296875,-2.54
2019-08-06 20:54:01.312500,-9.66
2019-08-06 20:54:01.328125,-13.65
2019-08-06 20:54:01.343750,-13.23
2019-08-06 20:54:01.359375,-9.58
2019-08-06 20:54:01.375000,-5.67
2019-08-06 20:54:01.390625,-4.38
2019-08-06 20:54:01.406250,-7.01
2019-08-06 20:54:01.421875,-12.43
2019-08-06 20:54:01.437500,-17.95
2019-08-06 20:54:01.453125,-20.86
2019-08-06 20:54:01.468750,-19.94
2019-08-06 20:54:01.484375,-16.28
2019-08-06 20:54:01.500000,-12.44
2019-08-06 20:54:01.515625,-10.98
2019-08-06 20:54:01.531250,-12.89
2019-08-06 20:54:01.546875,-17.05
2019-08-06 20:54:01.562500,-20.78
2019-08-06 20:54:01.578125,-21.48
2019-08-06 20:54:01.593750,-18.07
2019-08-06 20:54:01.609375,-11.8
2019-08-06 20:54:01.625000,-5.59
2019-08-06 20:54:01.640625,-2.38
2019-08-06 20:54:01.656250,-3.42
2019-08-06 20:54:01.671875,-7.5
2019-08-06 20:54:01.687500,-11.61
2019-08-06 20:54:01.703125,-12.64
2019-08-06 20:54:01.718750,-9.21
2019-08-06 20:54:01.734375,-2.61
2019-08-06 20:54:01.750000,3.85
2019-08-06 20:54:01.765625,6.64
2019-08-06 20:54:01.781250,4.18
2019-08-06 20:54:01.796875,-2.16
2019-08-06 20:54:01.812500,-8.66
2019-08-06 20:54:01.828125,-11.38
2019-08-06 20:54:01.843750,-8.46
2019-08-06 20:54:01.859375,-1.14
2019-08-06 20:54:01.875000,6.92
2019-08-06 20:54:01.890625,11.77
2019-08-06 20:54:01.906250,11.38
2019-08-06 20:54:01.921875,6.76
2019-08-06 20:54:01.937500,1.12
2019-08-06 20:54:01.953125,-2.1
2019-08-06 20:54:01.968750,-1.15
2019-08-06 20:54:01.984375,3.12
2019-08-06 20:54:02.000000,8.04
2019-08-06 20:54:02.015625,10.92
2019-08-06 20:54:02.031250,10.69
2019-08-06 20:54:02.046875,8.43
2019-08-06 20:54:02.062500,6.68
2019-08-06 20:54:02.078125,7.71
2019-08-06 20:54:02.093750,12.21
2019-08-06 20:54:02.109375,18.73
2019-08-06 20:54:02.125000,24.42
2019-08-06 20:54:02.140625,26.65
2019-08-06 20:54:02.156250,24.51
2019-08-06 20:54:02.171875,19.44
2019-08-06 20:54:02.187500,14.47
2019-08-06 20:54:02.203125,12.71
2019-08-06 20:54:02.218750,15.54
2019-08-06 20:54:02.234375,21.91
2019-08-06 20:54:02.250000,28.89
2019-08-06 20:54:02.265625,33.27
2019-08-06 20:54:02.281250,33.41
2019-08-06 20:54:02.296875,30.14
2019-08-06 20:54:02.312500,26.33
2019-08-06 20:54:02.328125,25.22
2019-08-06 20:54:02.343750,28.36
2019-08-06 20:54:02.359375,34.71
2019-08-06 20:54:02.375000,41.22
2019-08-06 20:54:02.390625,44.66
2019-08-06 20:54:02.406250,43.57
2019-08-06 20:54:02.421875,39.28
2019-08-06 20:54:02.437500,35.1
2019-08-06 20:54:02.453125,34.41
2019-08-06 20:54:02.468750,38.45
2019-08-06 20:54:02.484375,45.55
2019-08-06 20:54:02.500000,51.95
2019-08-06 20:54:02.515625,53.93
2019-08-06 20:54:02.531250,50.03
2019-08-06 20:54:02.546875,41.81
2019-08-06 20:54:02.562500,32.93
2019-08-06 20:54:02.578125,27.18
2019-08-06 20:54:02.593750,26.4
2019-08-06 20:54:02.609375,29.67
2019-08-06 20:54:02.625000,33.87
2019-08-06 20:54:02.640625,35.54
2019-08-06 20:54:02.656250,32.85
2019-08-06 20:54:02.671875,26.44
2019-08-06 20:54:02.687500,19.05
2019-08-06 20:54:02.703125,13.9
2019-08-06 20:54:02.718750,12.86
2019-08-06 20:54:02.734375,15.43
2019-08-06 20:54:02.750000,19.15
2019-08-06 20:54:02.765625,21.0
2019-08-06 20:54:02.781250,19.26
2019-08-06 20:54:02.796875,14.51
2019-08-06 20:54:02.812500,9.32
2019-08-06 20:54:02.828125,6.71
2019-08-06 20:54:02.843750,8.21
2019-08-06 20:54:02.859375,12.92
2019-08-06 20:54:02.875000,17.99
2019-08-06 20:54:02.890625,20.31
2019-08-06 20:54:02.906250,18.36
2019-08-06 20:54:02.921875,13.11
2019-08-06 20:54:02.937500,7.41
2019-08-06 20:54:02.953125,4.24
2019-08-06 20:54:02.968750,4.94
2019-08-06 20:54:02.984375,8.37
2019-08-06 20:54:03.000000,11.68
2019-08-06 20:54:03.015625,12.02
2019-08-06 20:54:03.031250,8.33
2019-08-06 20:54:03.046875,1.98
2019-08-06 20:54:03.062500,-3.96
2019-08-06 20:54:03.078125,-6.59
2019-08-06 20:54:03.093750,-4.82
2019-08-06 20:54:03.109375,0.06
2019-08-06 20:54:03.125000,5.14
2019-08-06 20:54:03.140625,7.56
2019-08-06 20:54:03.156250,6.18
2019-08-06 20:54:03.171875,2.08
2019-08-06 20:54:03.187500,-2.08
2019-08-06 20:54:03.203125,-3.7
2019-08-06 20:54:03.218750,-1.79
2019-08-06 20:54:03.234375,2.51
2019-08-06 20:54:03.250000,6.66
2019-08-06 20:54:03.265625,8.12
2019-08-06 20:54:03.281250,5.9
2019-08-06 20:54:03.296875,1.06
2019-08-06 20:54:03.312500,-3.79
2019-08-06 20:54:03.328125,-5.92
2019-08-06 20:54:03.343750,-4.02
2019-08-06 20:54:03.359375,0.94
2019-08-06 20:54:03.375000,6.31
2019-08-06 20:54:03.390625,9.15
2019-08-06 20:54:03.406250,8.04
2019-08-06 20:54:03.421875,3.91
2019-08-06 20:54:03.437500,-0.47
2019-08-06 20:54:03.453125,-2.17
2019-08-06 20:54:03.468750,0.14
2019-08-06 20:54:03.484375,5.36
2019-08-06 20:54:03.500000,10.45
2019-08-06 20:54:03.515625,12.19
2019-08-06 20:54:03.531250,9.21
2019-08-06 20:54:03.546875,2.7
2019-08-06 20:54:03.562500,-3.96
2019-08-06 20:54:03.578125,-7.15
2019-08-06 20:54:03.593750,-5.16
2019-08-06 20:54:03.609375,0.88
2019-08-06 20:54:03.625000,7.53
2019-08-06 20:54:03.640625,11.05
2019-08-06 20:54:03.656250,9.46
2019-08-06 20:54:03.671875,3.65
2019-08-06 20:54:03.687500,-3.17
2019-08-06 20:54:03.703125,-7.33
2019-08-06 20:54:03.718750,-6.74
2019-08-06 20:54:03.734375,-2.12
2019-08-06 20:54:03.750000,3.52
2019-08-06 20:54:03.765625,6.61
2019-08-06 20:54:03.781250,5.14
2019-08-06 20:54:03.796875,-0.12
2019-08-06 20:54:03.812500,-6.1
2019-08-06 20:54:03.828125,-9.31
2019-08-06 20:54:03.843750,-7.87
2019-08-06 20:54:03.859375,-2.64
2019-08-06 20:54:03.875000,3.36
2019-08-06 20:54:03.890625,6.67
2019-08-06 20:54:03.906250,5.44
2019-08-06 20:54:03.921875,0.49
2019-08-06 20:54:03.937500,-5.22
2019-08-06 20:54:03.953125,-8.3
2019-08-06 20:54:03.968750,-6.97
2019-08-06 20:54:03.984375,-2.05
2019-08-06 20:54:04.000000,3.47
2019-08-06 20:54:04.015625,6.23
2019-08-06 20:54:04.031250,4.48
2019-08-06 20:54:04.046875,-0.91
2019-08-06 20:54:04.062500,-7.0
2019-08-06 20:54:04.078125,-10.38
2019-08-06 20:54:04.093750,-9.19
2019-08-06 20:54:04.109375,-4.06
2019-08-06 20:54:04.125000,2.16
2019-08-06 20:54:04.140625,6.12
2019-08-06 20:54:04.156250,5.85
2019-08-06 20:54:04.171875,1.9
2019-08-06 20:54:04.187500,-2.96
2019-08-06 20:54:04.203125,-5.38
2019-08-06 20:54:04.218750,-3.42
2019-08-06 20:54:04.234375,2.16
2019-08-06 20:54:04.250000,8.31
2019-08-06 20:54:04.265625,11.48
2019-08-06 20:54:04.281250,9.71
2019-08-06 20:54:04.296875,3.84
2019-08-06 20:54:04.312500,-2.98
2019-08-06 20:54:04.328125,-7.12
2019-08-06 20:54:04.343750,-6.6
2019-08-06 20:54:04.359375,-2.2
2019-08-06 20:54:04.375000,3.03
2019-08-06 20:54:04.390625,5.82
2019-08-06 20:54:04.406250,4.61
2019-08-06 20:54:04.421875,0.52
2019-08-06 20:54:04.437500,-3.37
2019-08-06 20:54:04.453125,-4.01
2019-08-06 20:54:04.468750,-0.27
2019-08-06 20:54:04.484375,6.25
2019-08-06 20:54:04.500000,12.0
2019-08-06 20:54:04.515625,13.61
2019-08-06 20:54:04.531250,9.83
2019-08-06 20:54:04.546875,2.33
2019-08-06 20:54:04.562500,-5.22
2019-08-06 20:54:04.578125,-9.21
2019-08-06 20:54:04.593750,-8.1
2019-08-06 20:54:04.609375,-3.19
2019-08-06 20:54:04.625000,2.13
2019-08-06 20:54:04.640625,4.48
2019-08-06 20:54:04.656250,2.4
2019-08-06 20:54:04.671875,-2.88
2019-08-06 20:54:04.687500,-8.26
2019-08-06 20:54:04.703125,-10.65
2019-08-06 20:54:04.718750,-8.73
2019-08-06 20:54:04.734375,-3.71
2019-08-06 20:54:04.750000,1.49
2019-08-06 20:54:04.765625,3.87
2019-08-06 20:54:04.781250,2.24
2019-08-06 20:54:04.796875,-2.08
2019-08-06 20:54:04.812500,-6.13
2019-08-06 20:54:04.828125,-7.09
2019-08-06 20:54:04.843750,-3.94
2019-08-06 20:54:04.859375,1.95
2019-08-06 20:54:04.875000,7.5
2019-08-06 20:54:04.890625,9.72
2019-08-06 20:54:04.906250,7.41
2019-08-06 20:54:04.921875,1.87
2019-08-06 20:54:04.937500,-3.89
2019-08-06 20:54:04.953125,-6.83
2019-08-06 20:54:04.968750,-5.59
2019-08-06 20:54:04.984375,-1.15
2019-08-06 20:54:05.000000,3.78
2019-08-06 20:54:05.015625,6.34
2019-08-06 20:54:05.031250,5.11
2019-08-06 20:54:05.046875,0.93
2019-08-06 20:54:05.062500,-3.64
2019-08-06 20:54:05.078125,-5.82
2019-08-06 20:54:05.093750,-4.12
2019-08-06 20:54:05.109375,0.73
2019-08-06 20:54:05.125000,6.21
2019-08-06 20:54:05.140625,9.36
2019-08-06 20:54:05.156250,8.53
2019-08-06 20:54:05.171875,4.32
2019-08-06 20:54:05.187500,-0.73
2019-08-06 20:54:05.203125,-3.6
2019-08-06 20:54:05.218750,-2.6
2019-08-06 20:54:05.234375,1.57
2019-08-06 20:54:05.250000,6.32
2019-08-06 20:54:05.265625,8.59
2019-08-06 20:54:05.281250,6.71
2019-08-06 20:54:05.296875,1.41
2019-08-06 20:54:05.312500,-4.58
2019-08-06 20:54:05.328125,-8.12
2019-08-06 20:54:05.343750,-7.53
2019-08-06 20:54:05.359375,-3.5
2019-08-06 20:54:05.375000,1.38
2019-08-06 20:54:05.390625,4.17
2019-08-06 20:54:05.406250,3.39
2019-08-06 20:54:05.421875,-0.14
2019-08-06 20:54:05.437500,-3.78
2019-08-06 20:54:05.453125,-4.78
2019-08-06 20:54:05.468750,-1.98
2019-08-06 20:54:05.484375,3.31
2019-08-06 20:54:05.500000,8.11
2019-08-06 20:54:05.515625,9.5
2019-08-06 20:54:05.531250,6.39
2019-08-06 20:54:05.546875,0.26
2019-08-06 20:54:05.562500,-5.72
2019-08-06 20:54:05.578125,-8.47
2019-08-06 20:54:05.593750,-6.78
2019-08-06 20:54:05.609375,-2.05
2019-08-06 20:54:05.625000,2.58
2019-08-06 20:54:05.640625,4.09
2019-08-06 20:54:05.656250,1.4
2019-08-06 20:54:05.671875,-4.04
2019-08-06 20:54:05.687500,-9.05
2019-08-06 20:54:05.703125,-10.61
2019-08-06 20:54:05.718750,-7.54
2019-08-06 20:54:05.734375,-1.38
2019-08-06 20:54:05.750000,4.5
2019-08-06 20:54:05.765625,6.73
2019-08-06 20:54:05.781250,3.94
2019-08-06 20:54:05.796875,-2.42
2019-08-06 20:54:05.812500,-8.89
2019-08-06 20:54:05.828125,-11.89
2019-08-06 20:54:05.843750,-9.87
2019-08-06 20:54:05.859375,-4.11
2019-08-06 20:54:05.875000,2.02
2019-08-06 20:54:05.890625,5.14
2019-08-06 20:54:05.906250,3.83
2019-08-06 20:54:05.921875,-0.48
2019-08-06 20:54:05.937500,-4.43
2019-08-06 20:54:05.953125,-4.83
2019-08-06 20:54:05.968750,-0.62
2019-08-06 20:54:05.984375,6.41
2019-08-06 20:54:06.000000,12.54
2019-08-06 20:54:06.015625,14.26
2019-08-06 20:54:06.031250,10.47
2019-08-06 20:54:06.046875,3.09
2019-08-06 20:54:06.062500,-4.04
2019-08-06 20:54:06.078125,-7.26
2019-08-06 20:54:06.093750,-5.2
2019-08-06 20:54:06.109375,0.52
2019-08-06 20:54:06.125000,6.31
2019-08-06 20:54:06.140625,8.71
2019-08-06 20:54:06.156250,6.43
2019-08-06 20:54:06.171875,0.99
2019-08-06 20:54:06.187500,-4.25
2019-08-06 20:54:06.203125,-6.15
2019-08-06 20:54:06.218750,-3.68
2019-08-06 20:54:06.234375,1.47
2019-08-06 20:54:06.250000,6.02
2019-08-06 20:54:06.265625,6.98
2019-08-06 20:54:06.281250,3.61
2019-08-06 20:54:06.296875,-2.13
2019-08-06 20:54:06.312500,-6.77
2019-08-06 20:54:06.328125,-7.32
2019-08-06 20:54:06.343750,-3.01
2019-08-06 20:54:06.359375,4.13
2019-08-06 20:54:06.375000,10.35
2019-08-06 20:54:06.390625,12.19
2019-08-06 20:54:06.406250,8.4
2019-08-06 20:54:06.421875,0.58
2019-08-06 20:54:06.437500,-7.58
2019-08-06 20:54:06.453125,-12.36
2019-08-06 20:54:06.468750,-11.9
2019-08-06 20:54:06.484375,-7.1
2019-08-06 20:54:06.500000,-1.0
2019-08-06 20:54:06.515625,2.95
2019-08-06 20:54:06.531250,2.85
2019-08-06 20:54:06.546875,-0.61
2019-08-06 20:54:06.562500,-4.77
2019-08-06 20:54:06.578125,-6.65
2019-08-06 20:54:06.593750,-4.74
2019-08-06 20:54:06.609375,0.07
2019-08-06 20:54:06.625000,5.0
2019-08-06 20:54:06.640625,7.14
2019-08-06 20:54:06.656250,5.35
2019-08-06 20:54:06.671875,0.99
2019-08-06 20:54:06.687500,-2.91
2019-08-06 20:54:06.703125,-3.52
2019-08-06 20:54:06.718750,-0.05
2019-08-06 20:54:06.734375,5.68
2019-08-06 20:54:06.750000,10.26
2019-08-06 20:54:06.765625,10.64
2019-08-06 20:54:06.781250,6.11
2019-08-06 20:54:06.796875,-1.25
2019-08-06 20:54:06.812500,-7.65
2019-08-06 20:54:06.828125,-9.85
2019-08-06 20:54:06.843750,-6.88
2019-08-06 20:54:06.859375,-0.52
2019-08-06 20:54:06.875000,5.65
2019-08-06 20:54:06.890625,8.31
2019-08-06 20:54:06.906250,6.23
2019-08-06 20:54:06.921875,0.75
2019-08-06 20:54:06.937500,-5.09
2019-08-06 20:54:06.953125,-8.23
2019-08-06 20:54:06.968750,-7.37
2019-08-06 20:54:06.984375,-3.51
2019-08-06 20:54:07.000000,0.7
2019-08-06 20:54:07.015625,2.52
2019-08-06 20:54:07.031250,0.75
2019-08-06 20:54:07.046875,-3.55
2019-08-06 20:54:07.062500,-7.68
2019-08-06 20:54:07.078125,-8.89
2019-08-06 20:54:07.093750,-6.0
2019-08-06 20:54:07.109375,-0.18
2019-08-06 20:54:07.125000,5.63
2019-08-06 20:54:07.140625,8.43
2019-08-06 20:54:07.156250,6.88
2019-08-06 20:54:07.171875,2.24
2019-08-06 20:54:07.187500,-2.36
2019-08-06 20:54:07.203125,-3.79
2019-08-06 20:54:07.218750,-0.79
2019-08-06 20:54:07.234375,5.12
2019-08-06 20:54:07.250000,10.5
2019-08-06 20:54:07.265625,12.0
2019-08-06 20:54:07.281250,8.29
2019-08-06 20:54:07.296875,0.94
2019-08-06 20:54:07.312500,-6.45
2019-08-06 20:54:07.328125,-10.26
2019-08-06 20:54:07.343750,-8.93
2019-08-06 20:54:07.359375,-3.76
2019-08-06 20:54:07.375000,1.95
2019-08-06 20:54:07.390625,4.72
2019-08-06 20:54:07.406250,2.96
2019-08-06 20:54:07.421875,-2.1
2019-08-06 20:54:07.437500,-7.26
2019-08-06 20:54:07.453125,-9.21
2019-08-06 20:54:07.468750,-6.51
2019-08-06 20:54:07.484375,-0.46
2019-08-06 20:54:07.500000,5.56
2019-08-06 20:54:07.515625,8.2
2019-08-06 20:54:07.531250,6.04
2019-08-06 20:54:07.546875,0.43
2019-08-06 20:54:07.562500,-5.33
2019-08-06 20:54:07.578125,-7.9
2019-08-06 20:54:07.593750,-5.92
2019-08-06 20:54:07.609375,-0.81
2019-08-06 20:54:07.625000,4.15
2019-08-06 20:54:07.640625,5.84
2019-08-06 20:54:07.656250,3.16
2019-08-06 20:54:07.671875,-2.26
2019-08-06 20:54:07.687500,-7.07
2019-08-06 20:54:07.703125,-8.21
2019-08-06 20:54:07.718750,-4.75
2019-08-06 20:54:07.734375,1.53
2019-08-06 20:54:07.750000,7.23
2019-08-06 20:54:07.765625,9.31
2019-08-06 20:54:07.781250,6.81
2019-08-06 20:54:07.796875,1.3
2019-08-06 20:54:07.812500,-4.16
2019-08-06 20:54:07.828125,-6.62
2019-08-06 20:54:07.843750,-5.01
2019-08-06 20:54:07.859375,-0.63
2019-08-06 20:54:07.875000,3.72
2019-08-06 20:54:07.890625,5.34
2019-08-06 20:54:07.906250,3.15
2019-08-06 20:54:07.921875,-1.66
2019-08-06 20:54:07.937500,-6.3
2019-08-06 20:54:07.953125,-7.9
2019-08-06 20:54:07.968750,-5.15
2019-08-06 20:54:07.984375,0.87
2019-08-06 20:54:08.000000,7.22
2019-08-06 20:54:08.015625,10.68
2019-08-06 20:54:08.031250,9.65
2019-08-06 20:54:08.046875,4.99
2019-08-06 20:54:08.062500,-0.4
2019-08-06 20:54:08.078125,-3.2
2019-08-06 20:54:08.093750,-1.77
2019-08-06 20:54:08.109375,2.9
2019-08-06 20:54:08.125000,7.77
2019-08-06 20:54:08.140625,9.59
2019-08-06 20:54:08.156250,6.97
2019-08-06 20:54:08.171875,1.19
2019-08-06 20:54:08.187500,-4.48
2019-08-06 20:54:08.203125,-6.73
2019-08-06 20:54:08.218750,-4.24
2019-08-06 20:54:08.234375,1.52
2019-08-06 20:54:08.250000,7.1
2019-08-06 20:54:08.265625,9.16
2019-08-06 20:54:08.281250,6.39
2019-08-06 20:54:08.296875,0.21
2019-08-06 20:54:08.312500,-6.09
2019-08-06 20:54:08.328125,-9.26
2019-08-06 20:54:08.343750,-7.97
2019-08-06 20:54:08.359375,-3.49
2019-08-06 20:54:08.375000,1.17
2019-08-06 20:54:08.390625,3.1
2019-08-06 20:54:08.406250,1.27
2019-08-06 20:54:08.421875,-2.92
2019-08-06 20:54:08.437500,-6.46
2019-08-06 20:54:08.453125,-6.53
2019-08-06 20:54:08.468750,-2.26
2019-08-06 20:54:08.484375,4.75
2019-08-06 20:54:08.500000,11.14
2019-08-06 20:54:08.515625,13.62
2019-08-06 20:54:08.531250,10.97
2019-08-06 20:54:08.546875,4.62
2019-08-06 20:54:08.562500,-1.99
2019-08-06 20:54:08.578125,-5.41
2019-08-06 20:54:08.593750,-4.07
2019-08-06 20:54:08.609375,0.81
2019-08-06 20:54:08.625000,5.93
2019-08-06 20:54:08.640625,7.89
2019-08-06 20:54:08.656250,5.17
2019-08-06 20:54:08.671875,-0.99
2019-08-06 20:54:08.687500,-7.35
2019-08-06 20:54:08.703125,-10.53
2019-08-06 20:54:08.718750,-9.0
2019-08-06 20:54:08.734375,-3.9
2019-08-06 20:54:08.750000,1.63
2019-08-06 20:54:08.765625,4.35
2019-08-06 20:54:08.781250,2.77
2019-08-06 20:54:08.796875,-1.93
2019-08-06 20:54:08.812500,-6.63
2019-08-06 20:54:08.828125,-8.2
2019-08-06 20:54:08.843750,-5.35
2019-08-06 20:54:08.859375,0.58
2019-08-06 20:54:08.875000,6.34
2019-08-06 20:54:08.890625,8.58
2019-08-06 20:54:08.906250,5.84
2019-08-06 20:54:08.921875,-0.54
2019-08-06 20:54:08.937500,-7.16
2019-08-06 20:54:08.953125,-10.46
2019-08-06 20:54:08.968750,-8.79
2019-08-06 20:54:08.984375,-3.25
2019-08-06 20:54:09.000000,2.94
2019-08-06 20:54:09.015625,6.31
2019-08-06 20:54:09.031250,5.18
2019-08-06 20:54:09.046875,0.64
2019-08-06 20:54:09.062500,-4.22
2019-08-06 20:54:09.078125,-6.23
2019-08-06 20:54:09.093750,-4.09
2019-08-06 20:54:09.109375,0.92
2019-08-06 20:54:09.125000,5.65
2019-08-06 20:54:09.140625,7.06
2019-08-06 20:54:09.156250,4.07
2019-08-06 20:54:09.171875,-1.84
2019-08-06 20:54:09.187500,-7.42
2019-08-06 20:54:09.203125,-9.59
2019-08-06 20:54:09.218750,-7.21
2019-08-06 20:54:09.234375,-1.65
2019-08-06 20:54:09.250000,4.02
2019-08-06 20:54:09.265625,6.82
2019-08-06 20:54:09.281250,5.47
2019-08-06 20:54:09.296875,0.97
2019-08-06 20:54:09.312500,-4.06
2019-08-06 20:54:09.328125,-6.91
2019-08-06 20:54:09.343750,-6.34
2019-08-06 20:54:09.359375,-3.11
2019-08-06 20:54:09.375000,0.56
2019-08-06 20:54:09.390625,2.26
2019-08-06 20:54:09.406250,0.84
2019-08-06 20:54:09.421875,-2.85
2019-08-06 20:54:09.437500,-6.43
2019-08-06 20:54:09.453125,-7.42
2019-08-06 20:54:09.468750,-4.71
2019-08-06 20:54:09.484375,0.61
2019-08-06 20:54:09.500000,5.76
2019-08-06 20:54:09.515625,7.94
2019-08-06 20:54:09.531250,5.93
2019-08-06 20:54:09.546875,1.05
2019-08-06 20:54:09.562500,-3.66
2019-08-06 20:54:09.578125,-5.21
2019-08-06 20:54:09.593750,-2.46
2019-08-06 20:54:09.609375,3.22
2019-08-06 20:54:09.625000,8.74
2019-08-06 20:54:09.640625,11.07
2019-08-06 20:54:09.656250,9.14
2019-08-06 20:54:09.671875,4.41
2019-08-06 20:54:09.687500,-0.03
2019-08-06 20:54:09.703125,-1.3
2019-08-06 20:54:09.718750,1.54
2019-08-06 20:54:09.734375,6.9
2019-08-06 20:54:09.750000,11.55
2019-08-06 20:54:09.765625,12.41
2019-08-06 20:54:09.781250,8.37
2019-08-06 20:54:09.796875,1.0
2019-08-06 20:54:09.812500,-6.25
2019-08-06 20:54:09.828125,-9.89
2019-08-06 20:54:09.843750,-8.37
2019-08-06 20:54:09.859375,-2.87
2019-08-06 20:54:09.875000,3.36
2019-08-06 20:54:09.890625,6.84
2019-08-06 20:54:09.906250,5.87
2019-08-06 20:54:09.921875,1.41
2019-08-06 20:54:09.937500,-3.5
2019-08-06 20:54:09.953125,-5.72
2019-08-06 20:54:09.968750,-3.9
2019-08-06 20:54:09.984375,0.74
2019-08-06 20:54:10.000000,5.14
2019-08-06 20:54:10.015625,6.26
2019-08-06 20:54:10.031250,2.88
2019-08-06 20:54:10.046875,-3.57
2019-08-06 20:54:10.062500,-9.88
2019-08-06 20:54:10.078125,-12.8
2019-08-06 20:54:10.093750,-10.84
2019-08-06 20:54:10.109375,-5.11
2019-08-06 20:54:10.125000,1.39
2019-08-06 20:54:10.140625,5.39
2019-08-06 20:54:10.156250,5.15
2019-08-06 20:54:10.171875,1.31
2019-08-06 20:54:10.187500,-3.51
2019-08-06 20:54:10.203125,-6.3
2019-08-06 20:54:10.218750,-5.32
2019-08-06 20:54:10.234375,-1.13
2019-08-06 20:54:10.250000,3.89
2019-08-06 20:54:10.265625,6.93
2019-08-06 20:54:10.281250,6.4
2019-08-06 20:54:10.296875,2.77
2019-08-06 20:54:10.312500,-1.71
2019-08-06 20:54:10.328125,-4.36
2019-08-06 20:54:10.343750,-3.73
2019-08-06 20:54:10.359375,-0.43
2019-08-06 20:54:10.375000,3.28
2019-08-06 20:54:10.390625,4.91
2019-08-06 20:54:10.406250,3.26
2019-08-06 20:54:10.421875,-0.85
2019-08-06 20:54:10.437500,-5.07
2019-08-06 20:54:10.453125,-6.9
2019-08-06 20:54:10.468750,-5.24
2019-08-06 20:54:10.484375,-1.1
2019-08-06 20:54:10.500000,3.09
2019-08-06 20:54:10.515625,4.91
2019-08-06 20:54:10.531250,3.5
2019-08-06 20:54:10.546875,0.04
2019-08-06 20:54:10.562500,-3.02
2019-08-06 20:54:10.578125,-3.43
2019-08-06 20:54:10.593750,-0.52
2019-08-06 20:54:10.609375,4.28
2019-08-06 20:54:10.625000,8.24
2019-08-06 20:54:10.640625,8.88
2019-08-06 20:54:10.656250,5.46
2019-08-06 20:54:10.671875,-0.63
2019-08-06 20:54:10.687500,-6.57
2019-08-06 20:54:10.703125,-9.53
2019-08-06 20:54:10.718750,-8.25
2019-08-06 20:54:10.734375,-3.73
2019-08-06 20:54:10.750000,1.26
2019-08-06 20:54:10.765625,3.64
2019-08-06 20:54:10.781250,1.86
2019-08-06 20:54:10.796875,-3.24
2019-08-06 20:54:10.812500,-8.87
2019-08-06 20:54:10.828125,-11.83
2019-08-06 20:54:10.843750,-10.29
2019-08-06 20:54:10.859375,-4.91
2019-08-06 20:54:10.875000,1.43
2019-08-06 20:54:10.890625,5.36
2019-08-06 20:54:10.906250,4.91
2019-08-06 20:54:10.921875,0.66
2019-08-06 20:54:10.937500,-4.67
2019-08-06 20:54:10.953125,-7.79
2019-08-06 20:54:10.968750,-6.85
2019-08-06 20:54:10.984375,-2.5
2019-08-06 20:54:11.000000,2.53
2019-08-06 20:54:11.015625,5.03
2019-08-06 20:54:11.031250,3.4
2019-08-06 20:54:11.046875,-1.42
2019-08-06 20:54:11.062500,-6.42
2019-08-06 20:54:11.078125,-8.43
2019-08-06 20:54:11.093750,-5.9
2019-08-06 20:54:11.109375,0.1
2019-08-06 20:54:11.125000,6.53
2019-08-06 20:54:11.140625,10.15
2019-08-06 20:54:11.156250,9.47
2019-08-06 20:54:11.171875,5.63
2019-08-06 20:54:11.187500,1.58
2019-08-06 20:54:11.203125,0.29
2019-08-06 20:54:11.218750,2.9
2019-08-06 20:54:11.234375,8.12
2019-08-06 20:54:11.250000,12.97
2019-08-06 20:54:11.265625,14.52
2019-08-06 20:54:11.281250,11.59
2019-08-06 20:54:11.296875,5.42
2019-08-06 20:54:11.312500,-1.05
2019-08-06 20:54:11.328125,-4.91
2019-08-06 20:54:11.343750,-4.69
2019-08-06 20:54:11.359375,-1.18
2019-08-06 20:54:11.375000,3.14
2019-08-06 20:54:11.390625,5.49
2019-08-06 20:54:11.406250,4.41
2019-08-06 20:54:11.421875,0.48
2019-08-06 20:54:11.437500,-4.11
2019-08-06 20:54:11.453125,-6.75
2019-08-06 20:54:11.468750,-6.08
2019-08-06 20:54:11.484375,-2.68
2019-08-06 20:54:11.500000,1.16
2019-08-06 20:54:11.515625,2.78
2019-08-06 20:54:11.531250,0.74
2019-08-06 20:54:11.546875,-4.3
2019-08-06 20:54:11.562500,-9.84
2019-08-06 20:54:11.578125,-13.05
2019-08-06 20:54:11.593750,-12.38
2019-08-06 20:54:11.609375,-8.53
2019-08-06 20:54:11.625000,-4.02
2019-08-06 20:54:11.640625,-1.72
2019-08-06 20:54:11.656250,-3.16
2019-08-06 20:54:11.671875,-7.57
2019-08-06 20:54:11.687500,-12.38
2019-08-06 20:54:11.703125,-14.71
2019-08-06 20:54:11.718750,-13.14
2019-08-06 20:54:11.734375,-8.48
2019-08-06 20:54:11.750000,-3.4
2019-08-06 20:54:11.765625,-0.98
2019-08-06 20:54:11.781250,-2.9
2019-08-06 20:54:11.796875,-8.47
2019-08-06 20:54:11.812500,-15.01
2019-08-06 20:54:11.828125,-19.41
2019-08-06 20:54:11.843750,-19.79
2019-08-06 20:54:11.859375,-16.59
2019-08-06 20:54:11.875000,-12.32
2019-08-06 20:54:11.890625,-10.18
2019-08-06 20:54:11.906250,-12.29
2019-08-06 20:54:11.921875,-18.41
2019-08-06 20:54:11.937500,-26.19
2019-08-06 20:54:11.953125,-32.5
2019-08-06 20:54:11.968750,-35.27
2019-08-06 20:54:11.984375,-34.66
2019-08-06 20:54:12.000000,-32.85
2019-08-06 20:54:12.015625,-32.71
2019-08-06 20:54:12.031250,-36.1
2019-08-06 20:54:12.046875,-42.78
2019-08-06 20:54:12.062500,-50.64
2019-08-06 20:54:12.078125,-56.93
2019-08-06 20:54:12.093750,-60.02
2019-08-06 20:54:12.109375,-60.32
2019-08-06 20:54:12.125000,-59.92
2019-08-06 20:54:12.140625,-61.3
2019-08-06 20:54:12.156250,-65.78
2019-08-06 20:54:12.171875,-72.68
2019-08-06 20:54:12.187500,-79.73
2019-08-06 20:54:12.203125,-84.61
2019-08-06 20:54:12.218750,-86.25
2019-08-06 20:54:12.234375,-85.45
2019-08-06 20:54:12.250000,-84.15
2019-08-06 20:54:12.265625,-83.96
2019-08-06 20:54:12.281250,-84.71
2019-08-06 20:54:12.296875,-84.14
2019-08-06 20:54:12.312500,-78.94
2019-08-06 20:54:12.328125,-66.65
2019-08-06 20:54:12.343750,-47.21
2019-08-06 20:54:12.359375,-22.92
2019-08-06 20:54:12.375000,2.8
2019-08-06 20:54:12.390625,27.27
2019-08-06 20:54:12.406250,49.9
2019-08-06 20:54:12.421875,72.34
2019-08-06 20:54:12.437500,97.41
2019-08-06 20:54:12.453125,127.72
2019-08-06 20:54:12.468750,164.37
2019-08-06 20:54:12.484375,206.35
2019-08-06 20:54:12.500000,251.27
2019-08-06 20:54:12.515625,296.08
2019-08-06 20:54:12.531250,337.45
2019-08-06 20:54:12.546875,371.99
2019-08-06 20:54:12.562500,396.14
2019-08-06 20:54:12.578125,406.05
2019-08-06 20:54:12.593750,397.74
2019-08-06 20:54:12.609375,369.25
2019-08-06 20:54:12.625000,319.9
2019-08-06 20:54:12.640625,252.0
2019-08-06 20:54:12.656250,171.92
2019-08-06 20:54:12.671875,89.42
2019-08-06 20:54:12.687500,15.22
2019-08-06 20:54:12.703125,-42.55
2019-08-06 20:54:12.718750,-81.14
2019-08-06 20:54:12.734375,-103.54
2019-08-06 20:54:12.750000,-117.24
2019-08-06 20:54:12.765625,-130.74
2019-08-06 20:54:12.781250,-149.46
2019-08-06 20:54:12.796875,-173.85
2019-08-06 20:54:12.812500,-200.02
2019-08-06 20:54:12.828125,-222.63
2019-08-06 20:54:12.843750,-237.71
2019-08-06 20:54:12.859375,-244.2
2019-08-06 20:54:12.875000,-243.32
2019-08-06 20:54:12.890625,-237.38
2019-08-06 20:54:12.906250,-227.09
2019-08-06 20:54:12.921875,-210.98
2019-08-06 20:54:12.937500,-186.58
2019-08-06 20:54:12.953125,-152.34
2019-08-06 20:54:12.968750,-108.76
2019-08-06 20:54:12.984375,-58.29
2019-08-06 20:54:13.000000,-4.14
2019-08-06 20:54:13.015625,51.05
2019-08-06 20:54:13.031250,105.33
2019-08-06 20:54:13.046875,156.79
2019-08-06 20:54:13.062500,202.61
2019-08-06 20:54:13.078125,238.91
2019-08-06 20:54:13.093750,261.6
2019-08-06 20:54:13.109375,268.07
2019-08-06 20:54:13.125000,258.49
2019-08-06 20:54:13.140625,235.63
2019-08-06 20:54:13.156250,204.16
2019-08-06 20:54:13.171875,168.93
2019-08-06 20:54:13.187500,133.88
2019-08-06 20:54:13.203125,101.63
2019-08-06 20:54:13.218750,73.86
2019-08-06 20:54:13.234375,51.56
2019-08-06 20:54:13.250000,34.74
2019-08-06 20:54:13.265625,21.84
2019-08-06 20:54:13.281250,9.55
2019-08-06 20:54:13.296875,-6.76
2019-08-06 20:54:13.312500,-31.76
2019-08-06 20:54:13.328125,-68.35
2019-08-06 20:54:13.343750,-116.02
2019-08-06 20:54:13.359375,-169.91
2019-08-06 20:54:13.375000,-220.87
2019-08-06 20:54:13.390625,-257.43
2019-08-06 20:54:13.406250,-269.26
2019-08-06 20:54:13.421875,-251.1
2019-08-06 20:54:13.437500,-205.59
2019-08-06 20:54:13.453125,-143.37
2019-08-06 20:54:13.468750,-79.88
2019-08-06 20:54:13.484375,-29.85
2019-08-06 20:54:13.500000,-2.18
2019-08-06 20:54:13.515625,2.69
2019-08-06 20:54:13.531250,-8.26
2019-08-06 20:54:13.546875,-24.51
2019-08-06 20:54:13.562500,-36.6
2019-08-06 20:54:13.578125,-39.35
2019-08-06 20:54:13.593750,-32.66
2019-08-06 20:54:13.609375,-19.93
2019-08-06 20:54:13.625000,-5.61
2019-08-06 20:54:13.640625,6.82
2019-08-06 20:54:13.656250,15.51
2019-08-06 20:54:13.671875,19.77
2019-08-06 20:54:13.687500,18.98
2019-08-06 20:54:13.703125,11.83
2019-08-06 20:54:13.718750,-3.33
2019-08-06 20:54:13.734375,-27.33
2019-08-06 20:54:13.750000,-58.73
2019-08-06 20:54:13.765625,-93.18
2019-08-06 20:54:13.781250,-123.88
2019-08-06 20:54:13.796875,-143.81
2019-08-06 20:54:13.812500,-148.18
2019-08-06 20:54:13.828125,-136.22
2019-08-06 20:54:13.843750,-111.39
2019-08-06 20:54:13.859375,-79.92
2019-08-06 20:54:13.875000,-48.57
2019-08-06 20:54:13.890625,-22.59
2019-08-06 20:54:13.906250,-4.67
2019-08-06 20:54:13.921875,5.34
2019-08-06 20:54:13.937500,9.85
2019-08-06 20:54:13.953125,12.56
2019-08-06 20:54:13.968750,16.97
2019-08-06 20:54:13.984375,24.79
2019-08-06 20:54:14.000000,34.79
2019-08-06 20:54:14.015625,43.17
2019-08-06 20:54:14.031250,45.18
2019-08-06 20:54:14.046875,37.6
2019-08-06 20:54:14.062500,20.55
2019-08-06 20:54:14.078125,-2.49
2019-08-06 20:54:14.093750,-26.33
2019-08-06 20:54:14.109375,-45.98
2019-08-06 20:54:14.125000,-57.69
2019-08-06 20:54:14.140625,-58.82
2019-08-06 20:54:14.156250,-47.39
2019-08-06 20:54:14.171875,-22.3
2019-08-06 20:54:14.187500,15.25
2019-08-06 20:54:14.203125,60.44
2019-08-06 20:54:14.218750,104.77
2019-08-06 20:54:14.234375,138.25
2019-08-06 20:54:14.250000,153.06
2019-08-06 20:54:14.265625,146.74
2019-08-06 20:54:14.281250,122.85
2019-08-06 20:54:14.296875,88.94
2019-08-06 20:54:14.312500,53.15
2019-08-06 20:54:14.328125,21.34
2019-08-06 20:54:14.343750,-3.72
2019-08-06 20:54:14.359375,-21.56
2019-08-06 20:54:14.375000,-32.76
2019-08-06 20:54:14.390625,-38.24
2019-08-06 20:54:14.406250,-39.19
2019-08-06 20:54:14.421875,-37.27
2019-08-06 20:54:14.437500,-34.49
2019-08-06 20:54:14.453125,-32.32
2019-08-06 20:54:14.468750,-30.68
2019-08-06 20:54:14.484375,-27.67
2019-08-06 20:54:14.500000,-19.99
2019-08-06 20:54:14.515625,-4.15
2019-08-06 20:54:14.531250,21.81
2019-08-06 20:54:14.546875,57.48
2019-08-06 20:54:14.562500,99.82
2019-08-06 20:54:14.578125,143.53
2019-08-06 20:54:14.593750,181.95
2019-08-06 20:54:14.609375,208.53
2019-08-06 20:54:14.625000,219.08
2019-08-06 20:54:14.640625,214.22
2019-08-06 20:54:14.656250,199.28
2019-08-06 20:54:14.671875,182.37
2019-08-06 20:54:14.687500,171.16
2019-08-06 20:54:14.703125,169.54
2019-08-06 20:54:14.718750,176.0
2019-08-06 20:54:14.734375,184.37
2019-08-06 20:54:14.750000,186.47
2019-08-06 20:54:14.765625,175.92
2019-08-06 20:54:14.781250,150.6
2019-08-06 20:54:14.796875,112.72
2019-08-06 20:54:14.812500,66.96
2019-08-06 20:54:14.828125,17.75
2019-08-06 20:54:14.843750,-32.53
2019-08-06 20:54:14.859375,-83.39
2019-08-06 20:54:14.875000,-134.96
2019-08-06 20:54:14.890625,-186.35
2019-08-06 20:54:14.906250,-235.05
2019-08-06 20:54:14.921875,-277.73
2019-08-06 20:54:14.937500,-312.11
2019-08-06 20:54:14.953125,-338.34
2019-08-06 20:54:14.968750,-359.12
2019-08-06 20:54:14.984375,-379.01
2019-08-06 20:54:15.000000,-401.98
2019-08-06 20:54:15.015625,-429.86
2019-08-06 20:54:15.031250,-461.39
2019-08-06 20:54:15.046875,-492.41
2019-08-06 20:54:15.062500,-517.55
2019-08-06 20:54:15.078125,-532.49
2019-08-06 20:54:15.093750,-535.62
2019-08-06 20:54:15.109375,-528.43
2019-08-06 20:54:15.125000,-515.34
2019-08-06 20:54:15.140625,-499.61
2019-08-06 20:54:15.156250,-482.03
2019-08-06 20:54:15.171875,-460.07
2019-08-06 20:54:15.187500,-428.68
2019-08-06 20:54:15.203125,-382.55
2019-08-06 20:54:15.218750,-318.39
2019-08-06 20:54:15.234375,-236.11
2019-08-06 20:54:15.250000,-138.38
2019-08-06 20:54:15.265625,-29.62
2019-08-06 20:54:15.281250,85.26
2019-08-06 20:54:15.296875,200.23
2019-08-06 20:54:15.312500,307.06
2019-08-06 20:54:15.328125,396.14
2019-08-06 20:54:15.343750,458.7
2019-08-06 20:54:15.359375,490.31
2019-08-06 20:54:15.375000,493.2
2019-08-06 20:54:15.390625,476.91
2019-08-06 20:54:15.406250,453.32
2019-08-06 20:54:15.421875,432.38
2019-08-06 20:54:15.437500,418.63
2019-08-06 20:54:15.453125,410.8
2019-08-06 20:54:15.468750,404.83
2019-08-06 20:54:15.484375,397.03
2019-08-06 20:54:15.500000,386.37
2019-08-06 20:54:15.515625,374.55
2019-08-06 20:54:15.531250,364.16
2019-08-06 20:54:15.546875,354.77
2019-08-06 20:54:15.562500,343.36
2019-08-06 20:54:15.578125,325.24
2019-08-06 20:54:15.593750,295.31
2019-08-06 20:54:15.609375,252.38
2019-08-06 20:54:15.625000,201.84
2019-08-06 20:54:15.640625,154.97
2019-08-06 20:54:15.656250,123.79
2019-08-06 20:54:15.671875,114.39
2019-08-06 20:54:15.687500,122.0
2019-08-06 20:54:15.703125,132.57
2019-08-06 20:54:15.718750,129.87
2019-08-06 20:54:15.734375,104.59
2019-08-06 20:54:15.750000,61.2
2019-08-06 20:54:15.765625,16.49
2019-08-06 20:54:15.781250,-9.59
2019-08-06 20:54:15.796875,-5.21
2019-08-06 20:54:15.812500,26.52
2019-08-06 20:54:15.828125,68.86
2019-08-06 20:54:15.843750,100.1
2019-08-06 20:54:15.859375,103.68
2019-08-06 20:54:15.875000,74.41
2019-08-06 20:54:15.890625,18.85
2019-08-06 20:54:15.906250,-49.35
2019-08-06 20:54:15.921875,-115.83
2019-08-06 20:54:15.937500,-169.54
2019-08-06 20:54:15.953125,-203.77
2019-08-06 20:54:15.968750,-215.13
2019-08-06 20:54:15.984375,-202.55
2019-08-06 20:54:16.000000,-167.61
2019-08-06 20:54:16.015625,-115.83
2019-08-06 20:54:16.031250,-56.94
2019-08-06 20:54:16.046875,-3.49
2019-08-06 20:54:16.062500,32.5
2019-08-06 20:54:16.078125,43.34
2019-08-06 20:54:16.093750,28.54
2019-08-06 20:54:16.109375,-4.97
2019-08-06 20:54:16.125000,-45.26
2019-08-06 20:54:16.140625,-79.7
2019-08-06 20:54:16.156250,-99.36
2019-08-06 20:54:16.171875,-101.45
2019-08-06 20:54:16.187500,-89.47
2019-08-06 20:54:16.203125,-70.88
2019-08-06 20:54:16.218750,-53.71
2019-08-06 20:54:16.234375,-43.45
2019-08-06 20:54:16.250000,-41.52
2019-08-06 20:54:16.265625,-45.23
2019-08-06 20:54:16.281250,-49.31
2019-08-06 20:54:16.296875,-48.2
2019-08-06 20:54:16.312500,-38.18
2019-08-06 20:54:16.328125,-19.11
2019-08-06 20:54:16.343750,5.2
2019-08-06 20:54:16.359375,28.16
2019-08-06 20:54:16.375000,42.49
2019-08-06 20:54:16.390625,42.84
2019-08-06 20:54:16.406250,27.92
2019-08-06 20:54:16.421875,1.17
2019-08-06 20:54:16.437500,-30.21
2019-08-06 20:54:16.453125,-57.48
2019-08-06 20:54:16.468750,-73.19
2019-08-06 20:54:16.484375,-73.5
2019-08-06 20:54:16.500000,-59.2
2019-08-06 20:54:16.515625,-35.08
2019-08-06 20:54:16.531250,-8.01
2019-08-06 20:54:16.546875,15.39
2019-08-06 20:54:16.562500,30.61
2019-08-06 20:54:16.578125,36.05
2019-08-06 20:54:16.593750,32.7
2019-08-06 20:54:16.609375,23.12
2019-08-06 20:54:16.625000,10.37
2019-08-06 20:54:16.640625,-2.75
2019-08-06 20:54:16.656250,-14.05
2019-08-06 20:54:16.671875,-22.07
2019-08-06 20:54:16.687500,-26.07
2019-08-06 20:54:16.703125,-26.13
2019-08-06 20:54:16.718750,-23.08
2019-08-06 20:54:16.734375,-18.3
2019-08-06 20:54:16.750000,-13.21
2019-08-06 20:54:16.765625,-8.74
2019-08-06 20:54:16.781250,-5.08
2019-08-06 20:54:16.796875,-1.86
2019-08-06 20:54:16.812500,1.28
2019-08-06 20:54:16.828125,4.26
2019-08-06 20:54:16.843750,6.25
2019-08-06 20:54:16.859375,6.03
2019-08-06 20:54:16.875000,2.67
2019-08-06 20:54:16.890625,-3.78
2019-08-06 20:54:16.906250,-11.97
2019-08-06 20:54:16.921875,-19.57
2019-08-06 20:54:16.937500,-24.04
2019-08-06 20:54:16.953125,-23.67
2019-08-06 20:54:16.968750,-18.42
2019-08-06 20:54:16.984375,-10.01
2019-08-06 20:54:17.000000,-1.53
2019-08-06 20:54:17.015625,3.78
2019-08-06 20:54:17.031250,3.75
2019-08-06 20:54:17.046875,-1.68
2019-08-06 20:54:17.062500,-10.2
2019-08-06 20:54:17.078125,-17.76
2019-08-06 20:54:17.093750,-20.14
2019-08-06 20:54:17.109375,-14.69
2019-08-06 20:54:17.125000,-1.89
2019-08-06 20:54:17.140625,14.45
2019-08-06 20:54:17.156250,28.18
2019-08-06 20:54:17.171875,33.18
2019-08-06 20:54:17.187500,26.01
2019-08-06 20:54:17.203125,7.67
2019-08-06 20:54:17.218750,-16.39
2019-08-06 20:54:17.234375,-38.25
2019-08-06 20:54:17.250000,-50.55
2019-08-06 20:54:17.265625,-49.41
2019-08-06 20:54:17.281250,-35.61
2019-08-06 20:54:17.296875,-13.84
2019-08-06 20:54:17.312500,9.63
2019-08-06 20:54:17.328125,29.45
2019-08-06 20:54:17.343750,42.6
2019-08-06 20:54:17.359375,48.54
2019-08-06 20:54:17.375000,48.13
2019-08-06 20:54:17.390625,42.55
2019-08-06 20:54:17.406250,32.91
2019-08-06 20:54:17.421875,20.42
2019-08-06 20:54:17.437500,6.82
2019-08-06 20:54:17.453125,-5.9
2019-08-06 20:54:17.468750,-16.27
2019-08-06 20:54:17.484375,-24.16
2019-08-06 20:54:17.500000,-30.65
2019-08-06 20:54:17.515625,-36.77
2019-08-06 20:54:17.531250,-41.91
2019-08-06 20:54:17.546875,-43.12
2019-08-06 20:54:17.562500,-36.39
2019-08-06 20:54:17.578125,-19.31
2019-08-06 20:54:17.593750,6.29
2019-08-06 20:54:17.609375,33.79
2019-08-06 20:54:17.625000,54.02
2019-08-06 20:54:17.640625,59.42
2019-08-06 20:54:17.656250,47.79
2019-08-06 20:54:17.671875,23.49
2019-08-06 20:54:17.687500,-4.6
2019-08-06 20:54:17.703125,-27.39
2019-08-06 20:54:17.718750,-39.49
2019-08-06 20:54:17.734375,-40.84
2019-08-06 20:54:17.750000,-35.31
2019-08-06 20:54:17.765625,-27.65
2019-08-06 20:54:17.781250,-20.62
2019-08-06 20:54:17.796875,-14.03
2019-08-06 20:54:17.812500,-5.77
2019-08-06 20:54:17.828125,6.03
2019-08-06 20:54:17.843750,21.19
2019-08-06 20:54:17.859375,36.98
2019-08-06 20:54:17.875000,49.16
2019-08-06 20:54:17.890625,53.88
2019-08-06 20:54:17.906250,49.3
2019-08-06 20:54:17.921875,36.45
2019-08-06 20:54:17.937500,18.62
2019-08-06 20:54:17.953125,0.02
2019-08-06 20:54:17.968750,-15.71
2019-08-06 20:54:17.984375,-26.49
2019-08-06 20:54:18.000000,-31.89
2019-08-06 20:54:18.015625,-32.47
2019-08-06 20:54:18.031250,-29.03
2019-08-06 20:54:18.046875,-22.24
2019-08-06 20:54:18.062500,-12.9
2019-08-06 20:54:18.078125,-2.55
2019-08-06 20:54:18.093750,6.24
2019-08-06 20:54:18.109375,10.36
2019-08-06 20:54:18.125000,7.43
2019-08-06 20:54:18.140625,-2.78
2019-08-06 20:54:18.156250,-17.5
2019-08-06 20:54:18.171875,-31.55
2019-08-06 20:54:18.187500,-39.23
2019-08-06 20:54:18.203125,-36.59
2019-08-06 20:54:18.218750,-23.44
2019-08-06 20:54:18.234375,-3.81
2019-08-06 20:54:18.250000,15.39
2019-08-06 20:54:18.265625,27.03
2019-08-06 20:54:18.281250,26.91
2019-08-06 20:54:18.296875,15.71
2019-08-06 20:54:18.312500,-1.28
2019-08-06 20:54:18.328125,-16.68
2019-08-06 20:54:18.343750,-24.71
2019-08-06 20:54:18.359375,-24.03
2019-08-06 20:54:18.375000,-18.19
2019-08-06 20:54:18.390625,-13.25
2019-08-06 20:54:18.406250,-13.89
2019-08-06 20:54:18.421875,-20.18
2019-08-06 20:54:18.437500,-27.24
2019-08-06 20:54:18.453125,-27.95
2019-08-06 20:54:18.468750,-17.37
2019-08-06 20:54:18.484375,3.9
2019-08-06 20:54:18.500000,29.29
2019-08-06 20:54:18.515625,49.23
2019-08-06 20:54:18.531250,55.63
2019-08-06 20:54:18.546875,45.74
2019-08-06 20:54:18.562500,23.15
2019-08-06 20:54:18.578125,-4.06
2019-08-06 20:54:18.593750,-26.95
2019-08-06 20:54:18.609375,-39.17
2019-08-06 20:54:18.625000,-38.83
2019-08-06 20:54:18.640625,-28.25
2019-08-06 20:54:18.656250,-12.25
2019-08-06 20:54:18.671875,4.08
2019-08-06 20:54:18.687500,16.99
2019-08-06 20:54:18.703125,24.73
2019-08-06 20:54:18.718750,27.2
2019-08-06 20:54:18.734375,25.26
2019-08-06 20:54:18.750000,20.05
2019-08-06 20:54:18.765625,12.69
2019-08-06 20:54:18.781250,4.36
2019-08-06 20:54:18.796875,-3.55
2019-08-06 20:54:18.812500,-9.55
2019-08-06 20:54:18.828125,-12.42
2019-08-06 20:54:18.843750,-11.84
2019-08-06 20:54:18.859375,-8.7
2019-08-06 20:54:18.875000,-4.87
2019-08-06 20:54:18.890625,-2.28
2019-08-06 20:54:18.906250,-1.95
2019-08-06 20:54:18.921875,-3.24
2019-08-06 20:54:18.937500,-4.22
2019-08-06 20:54:18.953125,-2.6
2019-08-06 20:54:18.968750,2.88
2019-08-06 20:54:18.984375,11.71
2019-08-06 20:54:19.000000,21.63
2019-08-06 20:54:19.015625,29.49
2019-08-06 20:54:19.031250,32.32
2019-08-06 20:54:19.046875,28.3
2019-08-06 20:54:19.062500,17.19
2019-08-06 20:54:19.078125,0.54
2019-08-06 20:54:19.093750,-18.53
2019-08-06 20:54:19.109375,-35.72
2019-08-06 20:54:19.125000,-46.42
2019-08-06 20:54:19.140625,-46.93
2019-08-06 20:54:19.156250,-35.86
2019-08-06 20:54:19.171875,-15.12
2019-08-06 20:54:19.187500,10.08
2019-08-06 20:54:19.203125,32.59
2019-08-06 20:54:19.218750,45.59
2019-08-06 20:54:19.234375,45.15
2019-08-06 20:54:19.250000,31.65
2019-08-06 20:54:19.265625,9.72
2019-08-06 20:54:19.281250,-13.54
2019-08-06 20:54:19.296875,-31.16
2019-08-06 20:54:19.312500,-38.6
2019-08-06 20:54:19.328125,-35.02
2019-08-06 20:54:19.343750,-23.02
2019-08-06 20:54:19.359375,-7.23
2019-08-06 20:54:19.375000,7.5
2019-08-06 20:54:19.390625,17.59
2019-08-06 20:54:19.406250,21.45
2019-08-06 20:54:19.421875,19.47
2019-08-06 20:54:19.437500,13.45
2019-08-06 20:54:19.453125,5.88
2019-08-06 20:54:19.468750,-0.86
2019-08-06 20:54:19.484375,-5.02
2019-08-06 20:54:19.500000,-5.92
2019-08-06 20:54:19.515625,-3.85
2019-08-06 20:54:19.531250,0.26
2019-08-06 20:54:19.546875,5.3
2019-08-06 20:54:19.562500,10.33
2019-08-06 20:54:19.578125,14.56
2019-08-06 20:54:19.593750,17.09
2019-08-06 20:54:19.609375,16.89
2019-08-06 20:54:19.625000,12.99
2019-08-06 20:54:19.640625,5.12
2019-08-06 20:54:19.656250,-5.68
2019-08-06 20:54:19.671875,-16.82
2019-08-06 20:54:19.687500,-24.76
2019-08-06 20:54:19.703125,-26.09
2019-08-06 20:54:19.718750,-19.0
2019-08-06 20:54:19.734375,-4.16
2019-08-06 20:54:19.750000,15.03
2019-08-06 20:54:19.765625,33.08
2019-08-06 20:54:19.781250,43.82
2019-08-06 20:54:19.796875,42.28
2019-08-06 20:54:19.812500,26.65
2019-08-06 20:54:19.828125,-0.46
2019-08-06 20:54:19.843750,-31.98
2019-08-06 20:54:19.859375,-58.2
2019-08-06 20:54:19.875000,-69.99
2019-08-06 20:54:19.890625,-62.37
2019-08-06 20:54:19.906250,-36.69
2019-08-06 20:54:19.921875,-0.43
2019-08-06 20:54:19.937500,35.55
2019-08-06 20:54:19.953125,61.06
2019-08-06 20:54:19.968750,70.11
2019-08-06 20:54:19.984375,62.46
2019-08-06 20:54:20.000000,42.84
2019-08-06 20:54:20.015625,18.65
2019-08-06 20:54:20.031250,-2.69
2019-08-06 20:54:20.046875,-15.72
2019-08-06 20:54:20.062500,-17.9
2019-08-06 20:54:20.078125,-9.94
2019-08-06 20:54:20.093750,4.49
2019-08-06 20:54:20.109375,19.51
2019-08-06 20:54:20.125000,28.53
2019-08-06 20:54:20.140625,26.49
2019-08-06 20:54:20.156250,11.95
2019-08-06 20:54:20.171875,-11.8
2019-08-06 20:54:20.187500,-37.55
2019-08-06 20:54:20.203125,-56.81
2019-08-06 20:54:20.218750,-63.27
2019-08-06 20:54:20.234375,-55.43
2019-08-06 20:54:20.250000,-37.06
2019-08-06 20:54:20.265625,-15.39
2019-08-06 20:54:20.281250,2.21
2019-08-06 20:54:20.296875,11.31
2019-08-06 20:54:20.312500,11.65
2019-08-06 20:54:20.328125,6.41
2019-08-06 20:54:20.343750,-0.26
2019-08-06 20:54:20.359375,-5.52
2019-08-06 20:54:20.375000,-8.87
2019-08-06 20:54:20.390625,-11.44
2019-08-06 20:54:20.406250,-14.22
2019-08-06 20:54:20.421875,-16.62
2019-08-06 20:54:20.437500,-16.31
2019-08-06 20:54:20.453125,-10.73
2019-08-06 20:54:20.468750,0.88
2019-08-06 20:54:20.484375,16.12
2019-08-06 20:54:20.500000,29.9
2019-08-06 20:54:20.515625,36.55
2019-08-06 20:54:20.531250,32.58
2019-08-06 20:54:20.546875,18.66
2019-08-06 20:54:20.562500,-0.53
2019-08-06 20:54:20.578125,-18.23
2019-08-06 20:54:20.593750,-28.62
2019-08-06 20:54:20.609375,-29.23
2019-08-06 20:54:20.625000,-21.68
2019-08-06 20:54:20.640625,-10.51
2019-08-06 20:54:20.656250,-0.71
2019-08-06 20:54:20.671875,4.62
2019-08-06 20:54:20.687500,5.35
2019-08-06 20:54:20.703125,3.78
2019-08-06 20:54:20.718750,2.78
2019-08-06 20:54:20.734375,3.97
2019-08-06 20:54:20.750000,6.88
2019-08-06 20:54:20.765625,9.55
2019-08-06 20:54:20.781250,9.96
2019-08-06 20:54:20.796875,7.38
2019-08-06 20:54:20.812500,2.74
2019-08-06 20:54:20.828125,-2.02
2019-08-06 20:54:20.843750,-5.29
2019-08-06 20:54:20.859375,-6.71
2019-08-06 20:54:20.875000,-7.16
2019-08-06 20:54:20.890625,-7.93
2019-08-06 20:54:20.906250,-9.63
2019-08-06 20:54:20.921875,-11.6
2019-08-06 20:54:20.937500,-12.14
2019-08-06 20:54:20.953125,-9.53
2019-08-06 20:54:20.968750,-3.18
2019-08-06 20:54:20.984375,5.76
2019-08-06 20:54:21.000000,14.73
2019-08-06 20:54:21.015625,20.82
2019-08-06 20:54:21.031250,22.15
2019-08-06 20:54:21.046875,18.75
2019-08-06 20:54:21.062500,12.49
2019-08-06 20:54:21.078125,6.18
2019-08-06 20:54:21.093750,2.0
2019-08-06 20:54:21.109375,0.54
2019-08-06 20:54:21.125000,0.58
2019-08-06 20:54:21.140625,-0.0
2019-08-06 20:54:21.156250,-2.88
2019-08-06 20:54:21.171875,-8.2
2019-08-06 20:54:21.187500,-14.53
2019-08-06 20:54:21.203125,-19.58
2019-08-06 20:54:21.218750,-21.4
2019-08-06 20:54:21.234375,-19.25
2019-08-06 20:54:21.250000,-13.69
2019-08-06 20:54:21.265625,-6.18
2019-08-06 20:54:21.281250,1.75
2019-08-06 20:54:21.296875,8.98
2019-08-06 20:54:21.312500,14.98
2019-08-06 20:54:21.328125,19.5
2019-08-06 20:54:21.343750,22.2
2019-08-06 20:54:21.359375,22.46
2019-08-06 20:54:21.375000,19.56
2019-08-06 20:54:21.390625,13.19
2019-08-06 20:54:21.406250,4.05
2019-08-06 20:54:21.421875,-6.04
2019-08-06 20:54:21.437500,-14.48
2019-08-06 20:54:21.453125,-18.81
2019-08-06 20:54:21.468750,-17.8
2019-08-06 20:54:21.484375,-11.99
2019-08-06 20:54:21.500000,-3.5
2019-08-06 20:54:21.515625,4.96
2019-08-06 20:54:21.531250,11.23
2019-08-06 20:54:21.546875,14.42
2019-08-06 20:54:21.562500,14.8
2019-08-06 20:54:21.578125,13.18
2019-08-06 20:54:21.593750,10.16
2019-08-06 20:54:21.609375,5.79
2019-08-06 20:54:21.625000,-0.1
2019-08-06 20:54:21.640625,-7.28
2019-08-06 20:54:21.656250,-14.74
2019-08-06 20:54:21.671875,-20.79
2019-08-06 20:54:21.687500,-23.74
2019-08-06 20:54:21.703125,-22.56
2019-08-06 20:54:21.718750,-17.37
2019-08-06 20:54:21.734375,-9.37
2019-08-06 20:54:21.750000,-0.42
2019-08-06 20:54:21.765625,7.51
2019-08-06 20:54:21.781250,12.89
2019-08-06 20:54:21.796875,14.87
2019-08-06 20:54:21.812500,13.38
2019-08-06 20:54:21.828125,9.19
2019-08-06 20:54:21.843750,3.73
2019-08-06 20:54:21.859375,-1.13
2019-08-06 20:54:21.875000,-3.64
2019-08-06 20:54:21.890625,-2.72
2019-08-06 20:54:21.906250,1.48
2019-08-06 20:54:21.921875,7.41
2019-08-06 20:54:21.937500,12.57
2019-08-06 20:54:21.953125,14.35
2019-08-06 20:54:21.968750,11.26
2019-08-06 20:54:21.984375,3.6
2019-08-06 20:54:22.000000,-6.39
2019-08-06 20:54:22.015625,-15.36
2019-08-06 20:54:22.031250,-20.19
2019-08-06 20:54:22.046875,-19.24
2019-08-06 20:54:22.062500,-13.04
2019-08-06 20:54:22.078125,-4.02
2019-08-06 20:54:22.093750,4.6
2019-08-06 20:54:22.109375,10.18
2019-08-06 20:54:22.125000,11.6
2019-08-06 20:54:22.140625,9.55
2019-08-06 20:54:22.156250,5.91
2019-08-06 20:54:22.171875,2.74
2019-08-06 20:54:22.187500,1.28
2019-08-06 20:54:22.203125,1.58
2019-08-06 20:54:22.218750,2.66
2019-08-06 20:54:22.234375,3.32
2019-08-06 20:54:22.250000,2.88
2019-08-06 20:54:22.265625,1.55
2019-08-06 20:54:22.281250,0.23
2019-08-06 20:54:22.296875,-0.2
2019-08-06 20:54:22.312500,0.48
2019-08-06 20:54:22.328125,1.61
2019-08-06 20:54:22.343750,1.98
2019-08-06 20:54:22.359375,0.6
2019-08-06 20:54:22.375000,-2.71
2019-08-06 20:54:22.390625,-7.05
2019-08-06 20:54:22.406250,-10.88
2019-08-06 20:54:22.421875,-12.72
2019-08-06 20:54:22.437500,-11.77
2019-08-06 20:54:22.453125,-8.35
2019-08-06 20:54:22.468750,-3.67
2019-08-06 20:54:22.484375,0.66
2019-08-06 20:54:22.500000,3.38
2019-08-06 20:54:22.515625,4.14
2019-08-06 20:54:22.531250,3.65
2019-08-06 20:54:22.546875,3.15
2019-08-06 20:54:22.562500,3.54
2019-08-06 20:54:22.578125,4.49
2019-08-06 20:54:22.593750,4.27
2019-08-06 20:54:22.609375,0.56
2019-08-06 20:54:22.625000,-8.03
2019-08-06 20:54:22.640625,-20.43
2019-08-06 20:54:22.656250,-32.86
2019-08-06 20:54:22.671875,-40.05
2019-08-06 20:54:22.687500,-37.5
2019-08-06 20:54:22.703125,-23.55
2019-08-06 20:54:22.718750,-0.3
2019-08-06 20:54:22.734375,27.13
2019-08-06 20:54:22.750000,52.48
2019-08-06 20:54:22.765625,70.18
2019-08-06 20:54:22.781250,76.69
2019-08-06 20:54:22.796875,70.78
2019-08-06 20:54:22.812500,53.48
2019-08-06 20:54:22.828125,27.79
2019-08-06 20:54:22.843750,-1.66
2019-08-06 20:54:22.859375,-29.16
2019-08-06 20:54:22.875000,-49.16
2019-08-06 20:54:22.890625,-57.69
2019-08-06 20:54:22.906250,-53.71
2019-08-06 20:54:22.921875,-39.43
2019-08-06 20:54:22.937500,-19.61
2019-08-06 20:54:22.953125,0.12
2019-08-06 20:54:22.968750,15.13
2019-08-06 20:54:22.984375,22.95
2019-08-06 20:54:23.000000,23.63
2019-08-06 20:54:23.015625,19.14
2019-08-06 20:54:23.031250,12.36
2019-08-06 20:54:23.046875,5.98
2019-08-06 20:54:23.062500,1.75
2019-08-06 20:54:23.078125,0.17
2019-08-06 20:54:23.093750,0.69
2019-08-06 20:54:23.109375,2.11
2019-08-06 20:54:23.125000,3.24
2019-08-06 20:54:23.140625,3.22
2019-08-06 20:54:23.156250,1.76
2019-08-06 20:54:23.171875,-0.91
2019-08-06 20:54:23.187500,-4.21
2019-08-06 20:54:23.203125,-7.35
2019-08-06 20:54:23.218750,-9.46
2019-08-06 20:54:23.234375,-9.78
2019-08-06 20:54:23.250000,-7.93
2019-08-06 20:54:23.265625,-4.11
2019-08-06 20:54:23.281250,0.74
2019-08-06 20:54:23.296875,5.14
2019-08-06 20:54:23.312500,7.57
2019-08-06 20:54:23.328125,7.01
2019-08-06 20:54:23.343750,3.46
2019-08-06 20:54:23.359375,-2.07
2019-08-06 20:54:23.375000,-7.95
2019-08-06 20:54:23.390625,-12.56
2019-08-06 20:54:23.406250,-14.8
2019-08-06 20:54:23.421875,-14.28
2019-08-06 20:54:23.437500,-11.18
2019-08-06 20:54:23.453125,-5.9
2019-08-06 20:54:23.468750,1.07
2019-08-06 20:54:23.484375,8.99
2019-08-06 20:54:23.500000,16.64
2019-08-06 20:54:23.515625,22.25
2019-08-06 20:54:23.531250,23.89
2019-08-06 20:54:23.546875,20.31
2019-08-06 20:54:23.562500,11.69
2019-08-06 20:54:23.578125,0.08
2019-08-06 20:54:23.593750,-11.18
2019-08-06 20:54:23.609375,-18.7
2019-08-06 20:54:23.625000,-20.49
2019-08-06 20:54:23.640625,-16.74
2019-08-06 20:54:23.656250,-9.63
2019-08-06 20:54:23.671875,-2.1
2019-08-06 20:54:23.687500,3.59
2019-08-06 20:54:23.703125,6.7
2019-08-06 20:54:23.718750,8.02
2019-08-06 20:54:23.734375,8.83
2019-08-06 20:54:23.750000,9.9
2019-08-06 20:54:23.765625,10.86
2019-08-06 20:54:23.781250,10.46
2019-08-06 20:54:23.796875,7.51
2019-08-06 20:54:23.812500,1.76
2019-08-06 20:54:23.828125,-5.65
2019-08-06 20:54:23.843750,-12.6
2019-08-06 20:54:23.859375,-16.93
2019-08-06 20:54:23.875000,-17.43
2019-08-06 20:54:23.890625,-14.22
2019-08-06 20:54:23.906250,-8.56
2019-08-06 20:54:23.921875,-2.12
2019-08-06 20:54:23.937500,3.68
2019-08-06 20:54:23.953125,7.87
2019-08-06 20:54:23.968750,9.86
2019-08-06 20:54:23.984375,9.17
2019-08-06 20:54:24.000000,5.38
2019-08-06 20:54:24.015625,-1.55
2019-08-06 20:54:24.031250,-10.75
2019-08-06 20:54:24.046875,-20.19
2019-08-06 20:54:24.062500,-26.82
2019-08-06 20:54:24.078125,-27.52
2019-08-06 20:54:24.093750,-20.32
2019-08-06 20:54:24.109375,-5.54
2019-08-06 20:54:24.125000,13.77
2019-08-06 20:54:24.140625,32.43
2019-08-06 20:54:24.156250,44.79
2019-08-06 20:54:24.171875,46.88
2019-08-06 20:54:24.187500,38.13
2019-08-06 20:54:24.203125,21.84
2019-08-06 20:54:24.218750,4.0
2019-08-06 20:54:24.234375,-9.24
2019-08-06 20:54:24.250000,-14.17
2019-08-06 20:54:24.265625,-11.03
2019-08-06 20:54:24.281250,-3.54
2019-08-06 20:54:24.296875,3.13
2019-08-06 20:54:24.312500,5.05
2019-08-06 20:54:24.328125,1.42
2019-08-06 20:54:24.343750,-5.54
2019-08-06 20:54:24.359375,-11.96
2019-08-06 20:54:24.375000,-14.58
2019-08-06 20:54:24.390625,-12.22
2019-08-06 20:54:24.406250,-6.01
2019-08-06 20:54:24.421875,1.61
2019-08-06 20:54:24.437500,8.38
2019-08-06 20:54:24.453125,13.1
2019-08-06 20:54:24.468750,15.71
2019-08-06 20:54:24.484375,16.72
2019-08-06 20:54:24.500000,16.4
2019-08-06 20:54:24.515625,14.5
2019-08-06 20:54:24.531250,10.56
2019-08-06 20:54:24.546875,4.64
2019-08-06 20:54:24.562500,-2.23
2019-08-06 20:54:24.578125,-8.09
2019-08-06 20:54:24.593750,-10.83
2019-08-06 20:54:24.609375,-9.23
2019-08-06 20:54:24.625000,-3.79
2019-08-06 20:54:24.640625,3.26
2019-08-06 20:54:24.656250,8.76
2019-08-06 20:54:24.671875,9.89
2019-08-06 20:54:24.687500,5.4
2019-08-06 20:54:24.703125,-3.74
2019-08-06 20:54:24.718750,-14.69
2019-08-06 20:54:24.734375,-23.83
2019-08-06 20:54:24.750000,-28.26
2019-08-06 20:54:24.765625,-26.97
2019-08-06 20:54:24.781250,-21.3
2019-08-06 20:54:24.796875,-14.26
2019-08-06 20:54:24.812500,-9.23
2019-08-06 20:54:24.828125,-8.34
2019-08-06 20:54:24.843750,-11.57
2019-08-06 20:54:24.859375,-16.64
2019-08-06 20:54:24.875000,-20.17
2019-08-06 20:54:24.890625,-19.17
2019-08-06 20:54:24.906250,-12.57
2019-08-06 20:54:24.921875,-1.84
2019-08-06 20:54:24.937500,9.43
2019-08-06 20:54:24.953125,17.01
2019-08-06 20:54:24.968750,17.89
2019-08-06 20:54:24.984375,11.83
2019-08-06 20:54:25.000000,1.76
2019-08-06 20:54:25.015625,-7.34
2019-08-06 20:54:25.031250,-10.75
2019-08-06 20:54:25.046875,-6.52
2019-08-06 20:54:25.062500,3.24
2019-08-06 20:54:25.078125,13.0
2019-08-06 20:54:25.093750,16.47
2019-08-06 20:54:25.109375,9.86
2019-08-06 20:54:25.125000,-6.11
2019-08-06 20:54:25.140625,-26.47
2019-08-06 20:54:25.156250,-44.38
2019-08-06 20:54:25.171875,-53.99
2019-08-06 20:54:25.187500,-52.51
2019-08-06 20:54:25.203125,-40.45
2019-08-06 20:54:25.218750,-20.67
2019-08-06 20:54:25.234375,2.53
2019-08-06 20:54:25.250000,24.04
2019-08-06 20:54:25.265625,38.28
2019-08-06 20:54:25.281250,40.5
2019-08-06 20:54:25.296875,28.84
2019-08-06 20:54:25.312500,6.56
2019-08-06 20:54:25.328125,-17.78
2019-08-06 20:54:25.343750,-33.14
2019-08-06 20:54:25.359375,-31.03
2019-08-06 20:54:25.375000,-10.36
2019-08-06 20:54:25.390625,20.9
2019-08-06 20:54:25.406250,48.81
2019-08-06 20:54:25.421875,60.17
2019-08-06 20:54:25.437500,49.3
2019-08-06 20:54:25.453125,21.49
2019-08-06 20:54:25.468750,-9.51
2019-08-06 20:54:25.484375,-28.28
2019-08-06 20:54:25.500000,-25.3
2019-08-06 20:54:25.515625,-1.7
2019-08-06 20:54:25.531250,31.33
2019-08-06 20:54:25.546875,57.75
2019-08-06 20:54:25.562500,63.82
2019-08-06 20:54:25.578125,43.86
2019-08-06 20:54:25.593750,2.4
2019-08-06 20:54:25.609375,-48.22
2019-08-06 20:54:25.625000,-92.86
2019-08-06 20:54:25.640625,-119.57
2019-08-06 20:54:25.656250,-123.57
2019-08-06 20:54:25.671875,-108.09
2019-08-06 20:54:25.687500,-81.92
2019-08-06 20:54:25.703125,-54.67
2019-08-06 20:54:25.718750,-32.97
2019-08-06 20:54:25.734375,-19.07
2019-08-06 20:54:25.750000,-12.71
2019-08-06 20:54:25.765625,-14.07
2019-08-06 20:54:25.781250,-25.46
2019-08-06 20:54:25.796875,-49.72
2019-08-06 20:54:25.812500,-85.97
2019-08-06 20:54:25.828125,-126.21
2019-08-06 20:54:25.843750,-156.1
2019-08-06 20:54:25.859375,-160.8
2019-08-06 20:54:25.875000,-132.69
2019-08-06 20:54:25.890625,-76.41
2019-08-06 20:54:25.906250,-7.48
2019-08-06 20:54:25.921875,54.95
2019-08-06 20:54:25.937500,96.98
2019-08-06 20:54:25.953125,115.51
2019-08-06 20:54:25.968750,118.04
2019-08-06 20:54:25.984375,117.13
2019-08-06 20:54:26.000000,123.32
2019-08-06 20:54:26.015625,140.48
2019-08-06 20:54:26.031250,165.67
2019-08-06 20:54:26.046875,192.56
2019-08-06 20:54:26.062500,215.43
2019-08-06 20:54:26.078125,231.42
2019-08-06 20:54:26.093750,240.82
2019-08-06 20:54:26.109375,245.24
2019-08-06 20:54:26.125000,246.1
2019-08-06 20:54:26.140625,243.75
2019-08-06 20:54:26.156250,237.98
2019-08-06 20:54:26.171875,228.9
2019-08-06 20:54:26.187500,217.35
2019-08-06 20:54:26.203125,205.22
2019-08-06 20:54:26.218750,194.57
2019-08-06 20:54:26.234375,186.96
2019-08-06 20:54:26.250000,182.76
2019-08-06 20:54:26.265625,180.95
2019-08-06 20:54:26.281250,179.58
2019-08-06 20:54:26.296875,176.55
2019-08-06 20:54:26.312500,170.54
2019-08-06 20:54:26.328125,161.22
2019-08-06 20:54:26.343750,149.94
2019-08-06 20:54:26.359375,137.81
2019-08-06 20:54:26.375000,125.75
2019-08-06 20:54:26.390625,114.16
2019-08-06 20:54:26.406250,102.92
2019-08-06 20:54:26.421875,91.62
2019-08-06 20:54:26.437500,80.1
2019-08-06 20:54:26.453125,68.76
2019-08-06 20:54:26.468750,58.32
2019-08-06 20:54:26.484375,49.96
2019-08-06 20:54:26.500000,44.71
2019-08-06 20:54:26.515625,43.18
2019-08-06 20:54:26.531250,45.37
2019-08-06 20:54:26.546875,50.64
2019-08-06 20:54:26.562500,57.93
2019-08-06 20:54:26.578125,66.02
2019-08-06 20:54:26.593750,73.76
2019-08-06 20:54:26.609375,79.8
2019-08-06 20:54:26.625000,83.13
2019-08-06 20:54:26.640625,83.1
2019-08-06 20:54:26.656250,79.31
2019-08-06 20:54:26.671875,71.91
2019-08-06 20:54:26.687500,61.49
2019-08-06 20:54:26.703125,48.74
2019-08-06 20:54:26.718750,33.98
2019-08-06 20:54:26.734375,19.24
2019-08-06 20:54:26.750000,5.12
2019-08-06 20:54:26.765625,-8.48
2019-08-06 20:54:26.781250,-21.76
2019-08-06 20:54:26.796875,-35.11
2019-08-06 20:54:26.812500,-48.14
2019-08-06 20:54:26.828125,-59.69
2019-08-06 20:54:26.843750,-68.38
2019-08-06 20:54:26.859375,-73.4
2019-08-06 20:54:26.875000,-74.92
2019-08-06 20:54:26.890625,-74.74
2019-08-06 20:54:26.906250,-75.34
2019-08-06 20:54:26.921875,-78.86
2019-08-06 20:54:26.937500,-87.33
2019-08-06 20:54:26.953125,-101.01
2019-08-06 20:54:26.968750,-118.78
2019-08-06 20:54:26.984375,-138.85
2019-08-06 20:54:27.000000,-159.98
2019-08-06 20:54:27.015625,-181.92
2019-08-06 20:54:27.031250,-206.28
2019-08-06 20:54:27.046875,-235.49
2019-08-06 20:54:27.062500,-272.02
2019-08-06 20:54:27.078125,-319.18
2019-08-06 20:54:27.093750,-378.81
2019-08-06 20:54:27.109375,-450.37
2019-08-06 20:54:27.125000,-530.2
2019-08-06 20:54:27.140625,-611.49
2019-08-06 20:54:27.156250,-685.28
2019-08-06 20:54:27.171875,-743.58
2019-08-06 20:54:27.187500,-782.02
2019-08-06 20:54:27.203125,-792.38
2019-08-06 20:54:27.218750,-774.13
2019-08-06 20:54:27.234375,-731.76
2019-08-06 20:54:27.250000,-671.84
2019-08-06 20:54:27.265625,-599.83
2019-08-06 20:54:27.281250,-518.53
2019-08-06 20:54:27.296875,-428.01
2019-08-06 20:54:27.312500,-329.56
2019-08-06 20:54:27.328125,-227.98
2019-08-06 20:54:27.343750,-132.1
2019-08-06 20:54:27.359375,-54.13
2019-08-06 20:54:27.375000,-4.67
2019-08-06 20:54:27.390625,11.22
2019-08-06 20:54:27.406250,-4.03
2019-08-06 20:54:27.421875,-44.75
2019-08-06 20:54:27.437500,-97.71
2019-08-06 20:54:27.453125,-147.93
2019-08-06 20:54:27.468750,-182.47
2019-08-06 20:54:27.484375,-192.82
2019-08-06 20:54:27.500000,-177.36
2019-08-06 20:54:27.515625,-140.14
2019-08-06 20:54:27.531250,-89.21
2019-08-06 20:54:27.546875,-34.2
2019-08-06 20:54:27.562500,16.12
2019-08-06 20:54:27.578125,56.47
2019-08-06 20:54:27.593750,84.93
2019-08-06 20:54:27.609375,102.67
2019-08-06 20:54:27.625000,112.72
2019-08-06 20:54:27.640625,118.66
2019-08-06 20:54:27.656250,122.74
2019-08-06 20:54:27.671875,126.24
2019-08-06 20:54:27.687500,129.77
2019-08-06 20:54:27.703125,133.75
2019-08-06 20:54:27.718750,139.15
2019-08-06 20:54:27.734375,146.72
2019-08-06 20:54:27.750000,157.07
2019-08-06 20:54:27.765625,170.72
2019-08-06 20:54:27.781250,187.72
2019-08-06 20:54:27.796875,208.28
2019-08-06 20:54:27.812500,232.99
2019-08-06 20:54:27.828125,262.02
2019-08-06 20:54:27.843750,293.65
2019-08-06 20:54:27.859375,323.36
2019-08-06 20:54:27.875000,343.51
2019-08-06 20:54:27.890625,345.73
2019-08-06 20:54:27.906250,324.75
2019-08-06 20:54:27.921875,281.67
2019-08-06 20:54:27.937500,224.59
2019-08-06 20:54:27.953125,166.22
2019-08-06 20:54:27.968750,118.9
2019-08-06 20:54:27.984375,90.16
2019-08-06 20:54:28.000000,81.22
2019-08-06 20:54:28.015625,88.8
2019-08-06 20:54:28.031250,108.96
2019-08-06 20:54:28.046875,139.88
2019-08-06 20:54:28.062500,181.51
2019-08-06 20:54:28.078125,232.48
2019-08-06 20:54:28.093750,287.16
2019-08-06 20:54:28.109375,335.01
2019-08-06 20:54:28.125000,363.64
2019-08-06 20:54:28.140625,363.8
2019-08-06 20:54:28.156250,333.09
2019-08-06 20:54:28.171875,276.99
2019-08-06 20:54:28.187500,207.01
2019-08-06 20:54:28.203125,137.12
2019-08-06 20:54:28.218750,80.33
2019-08-06 20:54:28.234375,45.87
2019-08-06 20:54:28.250000,37.55
2019-08-06 20:54:28.265625,52.82
2019-08-06 20:54:28.281250,83.53
2019-08-06 20:54:28.296875,118.11
2019-08-06 20:54:28.312500,145.36
2019-08-06 20:54:28.328125,158.2
2019-08-06 20:54:28.343750,155.72
2019-08-06 20:54:28.359375,142.41
2019-08-06 20:54:28.375000,125.08
2019-08-06 20:54:28.390625,109.28
2019-08-06 20:54:28.406250,97.48
2019-08-06 20:54:28.421875,89.74
2019-08-06 20:54:28.437500,85.57
2019-08-06 20:54:28.453125,85.6
2019-08-06 20:54:28.468750,91.58
2019-08-06 20:54:28.484375,104.83
2019-08-06 20:54:28.500000,124.52
2019-08-06 20:54:28.515625,147.28
2019-08-06 20:54:28.531250,168.35
2019-08-06 20:54:28.546875,183.44
2019-08-06 20:54:28.562500,190.5
2019-08-06 20:54:28.578125,190.19
2019-08-06 20:54:28.593750,185.3
2019-08-06 20:54:28.609375,179.0
2019-08-06 20:54:28.625000,173.4
2019-08-06 20:54:28.640625,168.66
2019-08-06 20:54:28.656250,163.23
2019-08-06 20:54:28.671875,154.81
2019-08-06 20:54:28.687500,141.71
2019-08-06 20:54:28.703125,123.78
2019-08-06 20:54:28.718750,102.51
2019-08-06 20:54:28.734375,80.39
2019-08-06 20:54:28.750000,59.77
2019-08-06 20:54:28.765625,41.92
2019-08-06 20:54:28.781250,26.56
2019-08-06 20:54:28.796875,12.23
2019-08-06 20:54:28.812500,-2.84
2019-08-06 20:54:28.828125,-19.82
2019-08-06 20:54:28.843750,-38.65
2019-08-06 20:54:28.859375,-58.11
2019-08-06 20:54:28.875000,-76.52
2019-08-06 20:54:28.890625,-92.62
2019-08-06 20:54:28.906250,-106.21
2019-08-06 20:54:28.921875,-118.3
2019-08-06 20:54:28.937500,-130.45
2019-08-06 20:54:28.953125,-144.03
2019-08-06 20:54:28.968750,-159.59
2019-08-06 20:54:28.984375,-176.98
2019-08-06 20:54:29.000000,-195.95
2019-08-06 20:54:29.015625,-216.69
2019-08-06 20:54:29.031250,-239.82
2019-08-06 20:54:29.046875,-265.59
2019-08-06 20:54:29.062500,-292.94
2019-08-06 20:54:29.078125,-318.9
2019-08-06 20:54:29.093750,-339.38
2019-08-06 20:54:29.109375,-350.44
2019-08-06 20:54:29.125000,-349.61
2019-08-06 20:54:29.140625,-336.31
2019-08-06 20:54:29.156250,-311.27
2019-08-06 20:54:29.171875,-275.59
2019-08-06 20:54:29.187500,-230.5
2019-08-06 20:54:29.203125,-177.97
2019-08-06 20:54:29.218750,-121.76
2019-08-06 20:54:29.234375,-68.11
2019-08-06 20:54:29.250000,-24.69
2019-08-06 20:54:29.265625,1.77
2019-08-06 20:54:29.281250,8.39
2019-08-06 20:54:29.296875,-2.11
2019-08-06 20:54:29.312500,-21.96
2019-08-06 20:54:29.328125,-41.13
2019-08-06 20:54:29.343750,-51.44
2019-08-06 20:54:29.359375,-49.66
2019-08-06 20:54:29.375000,-38.33
2019-08-06 20:54:29.390625,-23.95
2019-08-06 20:54:29.406250,-13.49
2019-08-06 20:54:29.421875,-11.38
2019-08-06 20:54:29.437500,-18.08
2019-08-06 20:54:29.453125,-31.15
2019-08-06 20:54:29.468750,-47.19
2019-08-06 20:54:29.484375,-63.66
2019-08-06 20:54:29.500000,-79.24
2019-08-06 20:54:29.515625,-92.94
2019-08-06 20:54:29.531250,-102.87
2019-08-06 20:54:29.546875,-106.12
2019-08-06 20:54:29.562500,-100.23
2019-08-06 20:54:29.578125,-84.8
2019-08-06 20:54:29.593750,-63.05
2019-08-06 20:54:29.609375,-41.25
2019-08-06 20:54:29.625000,-26.18
2019-08-06 20:54:29.640625,-22.02
2019-08-06 20:54:29.656250,-27.97
2019-08-06 20:54:29.671875,-38.03
2019-08-06 20:54:29.687500,-43.1
2019-08-06 20:54:29.703125,-34.49
2019-08-06 20:54:29.718750,-7.41
2019-08-06 20:54:29.734375,36.93
2019-08-06 20:54:29.750000,91.64
2019-08-06 20:54:29.765625,146.61
2019-08-06 20:54:29.781250,192.15
2019-08-06 20:54:29.796875,222.29
2019-08-06 20:54:29.812500,236.31
2019-08-06 20:54:29.828125,238.22
2019-08-06 20:54:29.843750,234.39
2019-08-06 20:54:29.859375,230.95
2019-08-06 20:54:29.875000,231.51
2019-08-06 20:54:29.890625,236.51
2019-08-06 20:54:29.906250,243.45
2019-08-06 20:54:29.921875,248.13
2019-08-06 20:54:29.937500,245.89
2019-08-06 20:54:29.953125,232.44
2019-08-06 20:54:29.968750,205.05
2019-08-06 20:54:29.984375,163.74
2019-08-06 20:54:30.000000,111.95
2019-08-06 20:54:30.015625,56.41
2019-08-06 20:54:30.031250,5.85
2019-08-06 20:54:30.046875,-32.03
2019-08-06 20:54:30.062500,-53.64
2019-08-06 20:54:30.078125,-60.7
2019-08-06 20:54:30.093750,-60.06
2019-08-06 20:54:30.109375,-60.89
2019-08-06 20:54:30.125000,-70.97
2019-08-06 20:54:30.140625,-93.81
2019-08-06 20:54:30.156250,-127.13
2019-08-06 20:54:30.171875,-163.57
2019-08-06 20:54:30.187500,-193.87
2019-08-06 20:54:30.203125,-210.42
2019-08-06 20:54:30.218750,-209.92
2019-08-06 20:54:30.234375,-195.25
2019-08-06 20:54:30.250000,-174.7
2019-08-06 20:54:30.265625,-159.06
2019-08-06 20:54:30.281250,-158.54
2019-08-06 20:54:30.296875,-179.06
2019-08-06 20:54:30.312500,-219.81
2019-08-06 20:54:30.328125,-274.19
2019-08-06 20:54:30.343750,-332.11
2019-08-06 20:54:30.359375,-382.37
2019-08-06 20:54:30.375000,-416.45
2019-08-06 20:54:30.390625,-429.97
2019-08-06 20:54:30.406250,-423.01
2019-08-06 20:54:30.421875,-399.9
2019-08-06 20:54:30.437500,-367.03
2019-08-06 20:54:30.453125,-330.56
2019-08-06 20:54:30.468750,-295.39
2019-08-06 20:54:30.484375,-264.25
2019-08-06 20:54:30.500000,-236.94
2019-08-06 20:54:30.515625,-212.38
2019-08-06 20:54:30.531250,-188.69
2019-08-06 20:54:30.546875,-159.87
2019-08-06 20:54:30.562500,-121.05
2019-08-06 20:54:30.578125,-68.78
2019-08-06 20:54:30.593750,-1.96
2019-08-06 20:54:30.609375,76.14
2019-08-06 20:54:30.625000,154.55
2019-08-06 20:54:30.640625,222.72
2019-08-06 20:54:30.656250,270.32
2019-08-06 20:54:30.671875,288.68
2019-08-06 20:54:30.687500,272.62
2019-08-06 20:54:30.703125,221.23
2019-08-06 20:54:30.718750,138.29
2019-08-06 20:54:30.734375,33.1
2019-08-06 20:54:30.750000,-82.57
2019-08-06 20:54:30.765625,-197.07
2019-08-06 20:54:30.781250,-299.61
2019-08-06 20:54:30.796875,-384.65
2019-08-06 20:54:30.812500,-451.84
2019-08-06 20:54:30.828125,-503.56
2019-08-06 20:54:30.843750,-542.47
2019-08-06 20:54:30.859375,-573.4
2019-08-06 20:54:30.875000,-594.64
2019-08-06 20:54:30.890625,-601.36
2019-08-06 20:54:30.906250,-588.98
2019-08-06 20:54:30.921875,-555.98
2019-08-06 20:54:30.937500,-502.51
2019-08-06 20:54:30.953125,-432.12
2019-08-06 20:54:30.968750,-348.87
2019-08-06 20:54:30.984375,-257.08
2019-08-06 20:54:31.000000,-161.03
2019-08-06 20:54:31.015625,-64.36
2019-08-06 20:54:31.031250,28.51
2019-08-06 20:54:31.046875,112.32
2019-08-06 20:54:31.062500,180.48
2019-08-06 20:54:31.078125,227.24
2019-08-06 20:54:31.093750,248.9
2019-08-06 20:54:31.109375,246.06
2019-08-06 20:54:31.125000,222.67
2019-08-06 20:54:31.140625,185.24
2019-08-06 20:54:31.156250,142.88
2019-08-06 20:54:31.171875,105.25
2019-08-06 20:54:31.187500,80.67
2019-08-06 20:54:31.203125,73.53
2019-08-06 20:54:31.218750,85.78
2019-08-06 20:54:31.234375,117.18
2019-08-06 20:54:31.250000,167.56
2019-08-06 20:54:31.265625,235.85
2019-08-06 20:54:31.281250,315.06
2019-08-06 20:54:31.296875,396.98
2019-08-06 20:54:31.312500,472.26
2019-08-06 20:54:31.328125,542.95
2019-08-06 20:54:31.343750,608.97
2019-08-06 20:54:31.359375,670.24
2019-08-06 20:54:31.375000,719.44
2019-08-06 20:54:31.390625,752.35
2019-08-06 20:54:31.406250,767.3
2019-08-06 20:54:31.421875,765.17
2019-08-06 20:54:31.437500,750.05
2019-08-06 20:54:31.453125,729.52
2019-08-06 20:54:31.468750,712.38
2019-08-06 20:54:31.484375,705.51
2019-08-06 20:54:31.500000,714.05
2019-08-06 20:54:31.515625,739.61
2019-08-06 20:54:31.531250,780.46
2019-08-06 20:54:31.546875,830.39
2019-08-06 20:54:31.562500,880.78
2019-08-06 20:54:31.578125,913.82
2019-08-06 20:54:31.593750,917.54
2019-08-06 20:54:31.609375,886.51
2019-08-06 20:54:31.625000,820.73
2019-08-06 20:54:31.640625,725.41
2019-08-06 20:54:31.656250,608.08
2019-08-06 20:54:31.671875,476.99
2019-08-06 20:54:31.687500,339.04
2019-08-06 20:54:31.703125,200.03
2019-08-06 20:54:31.718750,65.83
2019-08-06 20:54:31.734375,-56.34
2019-08-06 20:54:31.750000,-160.49
2019-08-06 20:54:31.765625,-244.07
2019-08-06 20:54:31.781250,-307.72
2019-08-06 20:54:31.796875,-354.55
2019-08-06 20:54:31.812500,-388.2
2019-08-06 20:54:31.828125,-411.98
2019-08-06 20:54:31.843750,-428.25
2019-08-06 20:54:31.859375,-438.18
2019-08-06 20:54:31.875000,-441.23
2019-08-06 20:54:31.890625,-437.14
2019-08-06 20:54:31.906250,-426.87
2019-08-06 20:54:31.921875,-412.16
2019-08-06 20:54:31.937500,-395.25
2019-08-06 20:54:31.953125,-377.89
2019-08-06 20:54:31.968750,-361.26
2019-08-06 20:54:31.984375,-345.72
2019-08-06 20:54:32.000000,-331.05
2019-08-06 20:54:32.015625,-316.08
2019-08-06 20:54:32.031250,-299.99
2019-08-06 20:54:32.046875,-282.66
2019-08-06 20:54:32.062500,-264.59
2019-08-06 20:54:32.078125,-246.58
2019-08-06 20:54:32.093750,-229.32
2019-08-06 20:54:32.109375,-213.23
2019-08-06 20:54:32.125000,-198.39
2019-08-06 20:54:32.140625,-184.66
2019-08-06 20:54:32.156250,-171.52
2019-08-06 20:54:32.171875,-158.66
2019-08-06 20:54:32.187500,-146.04
2019-08-06 20:54:32.203125,-133.78
2019-08-06 20:54:32.218750,-122.12
2019-08-06 20:54:32.234375,-111.17
2019-08-06 20:54:32.250000,-100.97
2019-08-06 20:54:32.265625,-91.45
2019-08-06 20:54:32.281250,-82.59
2019-08-06 20:54:32.296875,-74.39
2019-08-06 20:54:32.312500,-66.96
2019-08-06 20:54:32.328125,-60.4
2019-08-06 20:54:32.343750,-54.71
2019-08-06 20:54:32.359375,-49.66
2019-08-06 20:54:32.375000,-44.85
2019-08-06 20:54:32.390625,-39.88
2019-08-06 20:54:32.406250,-34.56
2019-08-06 20:54:32.421875,-29.07
2019-08-06 20:54:32.437500,-23.91
2019-08-06 20:54:32.453125,-19.78
2019-08-06 20:54:32.468750,-17.13
2019-08-06 20:54:32.484375,-15.94
2019-08-06 20:54:32.500000,-15.62
2019-08-06 20:54:32.515625,-15.24
2019-08-06 20:54:32.531250,-13.95
2019-08-06 20:54:32.546875,-11.31
2019-08-06 20:54:32.562500,-7.64
2019-08-06 20:54:32.578125,-3.69
2019-08-06 20:54:32.593750,-0.74
2019-08-06 20:54:32.609375,0.37
2019-08-06 20:54:32.625000,-0.34
2019-08-06 20:54:32.640625,-2.03
2019-08-06 20:54:32.656250,-3.28
2019-08-06 20:54:32.671875,-2.96
2019-08-06 20:54:32.687500,-0.48
2019-08-06 20:54:32.703125,3.77
2019-08-06 20:54:32.718750,8.78
2019-08-06 20:54:32.734375,13.21
2019-08-06 20:54:32.750000,16.02
2019-08-06 20:54:32.765625,16.46
2019-08-06 20:54:32.781250,13.97
2019-08-06 20:54:32.796875,8.52
2019-08-06 20:54:32.812500,1.17
2019-08-06 20:54:32.828125,-5.35
2019-08-06 20:54:32.843750,-7.11
2019-08-06 20:54:32.859375,-0.38
2019-08-06 20:54:32.875000,16.15
2019-08-06 20:54:32.890625,39.99
2019-08-06 20:54:32.906250,65.4
2019-08-06 20:54:32.921875,85.33
2019-08-06 20:54:32.937500,94.36
2019-08-06 20:54:32.953125,90.81
2019-08-06 20:54:32.968750,77.04
2019-08-06 20:54:32.984375,57.17
2019-08-06 20:54:33.000000,36.41
2019-08-06 20:54:33.015625,17.6
2019-08-06 20:54:33.031250,1.29
2019-08-06 20:54:33.046875,-13.01
2019-08-06 20:54:33.062500,-25.52
2019-08-06 20:54:33.078125,-35.56
2019-08-06 20:54:33.093750,-42.05
2019-08-06 20:54:33.109375,-44.34
2019-08-06 20:54:33.125000,-42.94
2019-08-06 20:54:33.140625,-39.35
2019-08-06 20:54:33.156250,-35.6
2019-08-06 20:54:33.171875,-33.28
2019-08-06 20:54:33.187500,-32.82
2019-08-06 20:54:33.203125,-33.54
2019-08-06 20:54:33.218750,-34.19
2019-08-06 20:54:33.234375,-33.6
2019-08-06 20:54:33.250000,-31.22
2019-08-06 20:54:33.265625,-27.43
2019-08-06 20:54:33.281250,-23.1
2019-08-06 20:54:33.296875,-19.42
2019-08-06 20:54:33.312500,-17.2
2019-08-06 20:54:33.328125,-16.51
2019-08-06 20:54:33.343750,-16.81
2019-08-06 20:54:33.359375,-17.19
2019-08-06 20:54:33.375000,-16.88
2019-08-06 20:54:33.390625,-15.51
2019-08-06 20:54:33.406250,-13.27
2019-08-06 20:54:33.421875,-10.67
2019-08-06 20:54:33.437500,-8.42
2019-08-06 20:54:33.453125,-6.95
2019-08-06 20:54:33.468750,-6.34
2019-08-06 20:54:33.484375,-6.27
2019-08-06 20:54:33.500000,-6.29
2019-08-06 20:54:33.515625,-6.0
2019-08-06 20:54:33.531250,-5.22
2019-08-06 20:54:33.546875,-4.04
2019-08-06 20:54:33.562500,-2.68
2019-08-06 20:54:33.578125,-1.46
2019-08-06 20:54:33.593750,-0.61
2019-08-06 20:54:33.609375,-0.14
2019-08-06 20:54:33.625000,0.03
2019-08-06 20:54:33.640625,0.09
2019-08-06 20:54:33.656250,0.17
2019-08-06 20:54:33.671875,0.32
2019-08-06 20:54:33.687500,0.52
2019-08-06 20:54:33.703125,0.69
2019-08-06 20:54:33.718750,0.74
2019-08-06 20:54:33.734375,0.61
2019-08-06 20:54:33.750000,0.27
2019-08-06 20:54:33.765625,-0.27
2019-08-06 20:54:33.781250,-0.96
2019-08-06 20:54:33.796875,-1.79
2019-08-06 20:54:33.812500,-2.73
2019-08-06 20:54:33.828125,-3.75
2019-08-06 20:54:33.843750,-4.83
2019-08-06 20:54:33.859375,-5.98
2019-08-06 20:54:33.875000,-7.22
2019-08-06 20:54:33.890625,-8.58
2019-08-06 20:54:33.906250,-10.11
2019-08-06 20:54:33.921875,-11.82
2019-08-06 20:54:33.937500,-13.72
2019-08-06 20:54:33.953125,-15.82
2019-08-06 20:54:33.968750,-18.07
2019-08-06 20:54:33.984375,-20.4
2019-08-06 20:54:34.000000,-22.82
2019-08-06 20:54:34.015625,-25.28
2019-08-06 20:54:34.031250,-27.86
2019-08-06 20:54:34.046875,-30.62
2019-08-06 20:54:34.062500,-33.63
2019-08-06 20:54:34.078125,-36.95
2019-08-06 20:54:34.093750,-40.64
2019-08-06 20:54:34.109375,-44.69
2019-08-06 20:54:34.125000,-49.0
2019-08-06 20:54:34.140625,-53.55
2019-08-06 20:54:34.156250,-58.28
2019-08-06 20:54:34.171875,-63.22
2019-08-06 20:54:34.187500,-68.34
2019-08-06 20:54:34.203125,-73.51
2019-08-06 20:54:34.218750,-78.5
2019-08-06 20:54:34.234375,-82.75
2019-08-06 20:54:34.250000,-85.48
2019-08-06 20:54:34.265625,-85.85
2019-08-06 20:54:34.281250,-83.07
2019-08-06 20:54:34.296875,-76.66
2019-08-06 20:54:34.312500,-66.45
2019-08-06 20:54:34.328125,-52.89
2019-08-06 20:54:34.343750,-36.44
2019-08-06 20:54:34.359375,-17.8
2019-08-06 20:54:34.375000,2.1
2019-08-06 20:54:34.390625,22.26
2019-08-06 20:54:34.406250,41.61
2019-08-06 20:54:34.421875,58.92
2019-08-06 20:54:34.437500,72.76
2019-08-06 20:54:34.453125,81.64
2019-08-06 20:54:34.468750,84.18
2019-08-06 20:54:34.484375,79.45
2019-08-06 20:54:34.500000,67.2
2019-08-06 20:54:34.515625,48.07
2019-08-06 20:54:34.531250,23.55
2019-08-06 20:54:34.546875,-4.05
2019-08-06 20:54:34.562500,-32.3
2019-08-06 20:54:34.578125,-59.05
2019-08-06 20:54:34.593750,-82.81
2019-08-06 20:54:34.609375,-102.71
2019-08-06 20:54:34.625000,-118.01
2019-08-06 20:54:34.640625,-128.05
2019-08-06 20:54:34.656250,-131.94
2019-08-06 20:54:34.671875,-128.04
2019-08-06 20:54:34.687500,-114.58
2019-08-06 20:54:34.703125,-90.22
2019-08-06 20:54:34.718750,-54.88
2019-08-06 20:54:34.734375,-10.14
2019-08-06 20:54:34.750000,40.33
2019-08-06 20:54:34.765625,90.88
2019-08-06 20:54:34.781250,134.91
2019-08-06 20:54:34.796875,166.48
2019-08-06 20:54:34.812500,182.28
2019-08-06 20:54:34.828125,182.92
2019-08-06 20:54:34.843750,172.62
2019-08-06 20:54:34.859375,157.75
2019-08-06 20:54:34.875000,144.55
2019-08-06 20:54:34.890625,137.19
2019-08-06 20:54:34.906250,136.83
2019-08-06 20:54:34.921875,141.65
2019-08-06 20:54:34.937500,147.59
2019-08-06 20:54:34.953125,149.36
2019-08-06 20:54:34.968750,141.83
2019-08-06 20:54:34.984375,121.7
2019-08-06 20:54:35.000000,88.93
2019-08-06 20:54:35.015625,47.55
2019-08-06 20:54:35.031250,4.79
2019-08-06 20:54:35.046875,-31.18
2019-08-06 20:54:35.062500,-54.28
2019-08-06 20:54:35.078125,-61.9
2019-08-06 20:54:35.093750,-55.77
2019-08-06 20:54:35.109375,-40.4
2019-08-06 20:54:35.125000,-20.53
2019-08-06 20:54:35.140625,0.32
2019-08-06 20:54:35.156250,20.38
2019-08-06 20:54:35.171875,38.77
2019-08-06 20:54:35.187500,54.63
2019-08-06 20:54:35.203125,67.01
2019-08-06 20:54:35.218750,75.35
2019-08-06 20:54:35.234375,79.89
2019-08-06 20:54:35.250000,81.8
2019-08-06 20:54:35.265625,82.57
2019-08-06 20:54:35.281250,83.53
2019-08-06 20:54:35.296875,85.22
2019-08-06 20:54:35.312500,87.22
2019-08-06 20:54:35.328125,88.5
2019-08-06 20:54:35.343750,87.97
2019-08-06 20:54:35.359375,84.95
2019-08-06 20:54:35.375000,79.26
2019-08-06 20:54:35.390625,71.13
2019-08-06 20:54:35.406250,61.27
2019-08-06 20:54:35.421875,49.78
2019-08-06 20:54:35.437500,36.79
2019-08-06 20:54:35.453125,22.47
2019-08-06 20:54:35.468750,7.28
2019-08-06 20:54:35.484375,-8.02
2019-08-06 20:54:35.500000,-22.49
2019-08-06 20:54:35.515625,-35.37
2019-08-06 20:54:35.531250,-46.28
2019-08-06 20:54:35.546875,-55.42
2019-08-06 20:54:35.562500,-63.14
2019-08-06 20:54:35.578125,-69.59
2019-08-06 20:54:35.593750,-74.52
2019-08-06 20:54:35.609375,-77.31
2019-08-06 20:54:35.625000,-77.4
2019-08-06 20:54:35.640625,-74.56
2019-08-06 20:54:35.656250,-69.41
2019-08-06 20:54:35.671875,-63.37
2019-08-06 20:54:35.687500,-58.62
2019-08-06 20:54:35.703125,-57.31
2019-08-06 20:54:35.718750,-61.41
2019-08-06 20:54:35.734375,-72.61
2019-08-06 20:54:35.750000,-91.72
2019-08-06 20:54:35.765625,-117.78
2019-08-06 20:54:35.781250,-147.22
2019-08-06 20:54:35.796875,-173.89
2019-08-06 20:54:35.812500,-189.01
2019-08-06 20:54:35.828125,-187.1
2019-08-06 20:54:35.843750,-167.52
2019-08-06 20:54:35.859375,-135.42
2019-08-06 20:54:35.875000,-99.9
2019-08-06 20:54:35.890625,-70.45
2019-08-06 20:54:35.906250,-53.13
2019-08-06 20:54:35.921875,-48.74
2019-08-06 20:54:35.937500,-53.65
2019-08-06 20:54:35.953125,-62.53
2019-08-06 20:54:35.968750,-71.49
2019-08-06 20:54:35.984375,-79.22
2019-08-06 20:54:36.000000,-86.61
2019-08-06 20:54:36.015625,-95.01
2019-08-06 20:54:36.031250,-104.47
2019-08-06 20:54:36.046875,-113.12
2019-08-06 20:54:36.062500,-117.94
2019-08-06 20:54:36.078125,-116.27
2019-08-06 20:54:36.093750,-106.93
2019-08-06 20:54:36.109375,-91.44
2019-08-06 20:54:36.125000,-72.29
2019-08-06 20:54:36.140625,-52.65
2019-08-06 20:54:36.156250,-35.24
2019-08-06 20:54:36.171875,-21.41
2019-08-06 20:54:36.187500,-10.76
2019-08-06 20:54:36.203125,-1.6
2019-08-06 20:54:36.218750,8.27
2019-08-06 20:54:36.234375,20.8
2019-08-06 20:54:36.250000,37.52
2019-08-06 20:54:36.265625,59.65
2019-08-06 20:54:36.281250,87.73
2019-08-06 20:54:36.296875,121.1
2019-08-06 20:54:36.312500,157.13
2019-08-06 20:54:36.328125,190.98
2019-08-06 20:54:36.343750,216.38
2019-08-06 20:54:36.359375,228.15
2019-08-06 20:54:36.375000,223.86
2019-08-06 20:54:36.390625,206.75
2019-08-06 20:54:36.406250,184.19
2019-08-06 20:54:36.421875,163.71
2019-08-06 20:54:36.437500,148.89
2019-08-06 20:54:36.453125,137.38
2019-08-06 20:54:36.468750,122.88
2019-08-06 20:54:36.484375,100.02
2019-08-06 20:54:36.500000,68.04
2019-08-06 20:54:36.515625,32.73
2019-08-06 20:54:36.531250,3.88
2019-08-06 20:54:36.546875,-9.77
2019-08-06 20:54:36.562500,-5.03
2019-08-06 20:54:36.578125,14.6
2019-08-06 20:54:36.593750,41.09
2019-08-06 20:54:36.609375,65.46
2019-08-06 20:54:36.625000,80.42
2019-08-06 20:54:36.640625,81.22
2019-08-06 20:54:36.656250,65.3
2019-08-06 20:54:36.671875,32.28
2019-08-06 20:54:36.687500,-15.31
2019-08-06 20:54:36.703125,-70.95
2019-08-06 20:54:36.718750,-124.0
2019-08-06 20:54:36.734375,-161.89
2019-08-06 20:54:36.750000,-174.28
2019-08-06 20:54:36.765625,-157.36
2019-08-06 20:54:36.781250,-115.65
2019-08-06 20:54:36.796875,-60.36
2019-08-06 20:54:36.812500,-4.89
2019-08-06 20:54:36.828125,39.85
2019-08-06 20:54:36.843750,68.11
2019-08-06 20:54:36.859375,79.52
2019-08-06 20:54:36.875000,76.88
2019-08-06 20:54:36.890625,63.7
2019-08-06 20:54:36.906250,42.61
2019-08-06 20:54:36.921875,15.76
2019-08-06 20:54:36.937500,-13.71
2019-08-06 20:54:36.953125,-40.85
2019-08-06 20:54:36.968750,-59.48
2019-08-06 20:54:36.984375,-64.91
2019-08-06 20:54:37.000000,-56.54
2019-08-06 20:54:37.015625,-39.01
2019-08-06 20:54:37.031250,-20.68
2019-08-06 20:54:37.046875,-9.9
2019-08-06 20:54:37.062500,-11.08
2019-08-06 20:54:37.078125,-22.71
2019-08-06 20:54:37.093750,-38.55
2019-08-06 20:54:37.109375,-51.11
2019-08-06 20:54:37.125000,-55.53
2019-08-06 20:54:37.140625,-51.23
2019-08-06 20:54:37.156250,-41.17
2019-08-06 20:54:37.171875,-29.25
2019-08-06 20:54:37.187500,-17.92
2019-08-06 20:54:37.203125,-7.78
2019-08-06 20:54:37.218750,1.26
2019-08-06 20:54:37.234375,8.63
2019-08-06 20:54:37.250000,12.63
2019-08-06 20:54:37.265625,11.49
2019-08-06 20:54:37.281250,5.13
2019-08-06 20:54:37.296875,-4.36
2019-08-06 20:54:37.312500,-13.59
2019-08-06 20:54:37.328125,-19.86
2019-08-06 20:54:37.343750,-22.65
2019-08-06 20:54:37.359375,-23.77
2019-08-06 20:54:37.375000,-26.07
2019-08-06 20:54:37.390625,-31.6
2019-08-06 20:54:37.406250,-40.45
2019-08-06 20:54:37.421875,-50.63
2019-08-06 20:54:37.437500,-59.13
2019-08-06 20:54:37.453125,-62.75
2019-08-06 20:54:37.468750,-58.71
2019-08-06 20:54:37.484375,-44.9
2019-08-06 20:54:37.500000,-20.23
2019-08-06 20:54:37.515625,14.3
2019-08-06 20:54:37.531250,54.43
2019-08-06 20:54:37.546875,92.49
2019-08-06 20:54:37.562500,119.12
2019-08-06 20:54:37.578125,127.17
2019-08-06 20:54:37.593750,115.51
2019-08-06 20:54:37.609375,90.28
2019-08-06 20:54:37.625000,62.21
2019-08-06 20:54:37.640625,41.31
2019-08-06 20:54:37.656250,31.52
2019-08-06 20:54:37.671875,28.86
2019-08-06 20:54:37.687500,24.06
2019-08-06 20:54:37.703125,8.37
2019-08-06 20:54:37.718750,-20.93
2019-08-06 20:54:37.734375,-58.42
2019-08-06 20:54:37.750000,-93.54
2019-08-06 20:54:37.765625,-116.08
2019-08-06 20:54:37.781250,-121.29
2019-08-06 20:54:37.796875,-111.53
2019-08-06 20:54:37.812500,-93.79
2019-08-06 20:54:37.828125,-75.16
2019-08-06 20:54:37.843750,-59.24
2019-08-06 20:54:37.859375,-45.17
2019-08-06 20:54:37.875000,-29.34
2019-08-06 20:54:37.890625,-8.22
2019-08-06 20:54:37.906250,19.46
2019-08-06 20:54:37.921875,52.04
2019-08-06 20:54:37.937500,85.24
2019-08-06 20:54:37.953125,113.32
2019-08-06 20:54:37.968750,130.67
2019-08-06 20:54:37.984375,133.13
2019-08-06 20:54:38.000000,119.48
2019-08-06 20:54:38.015625,92.24
2019-08-06 20:54:38.031250,57.33
2019-08-06 20:54:38.046875,22.55
2019-08-06 20:54:38.062500,-5.06
2019-08-06 20:54:38.078125,-21.71
2019-08-06 20:54:38.093750,-27.65
2019-08-06 20:54:38.109375,-26.3
2019-08-06 20:54:38.125000,-22.1
2019-08-06 20:54:38.140625,-18.45
2019-08-06 20:54:38.156250,-16.9
2019-08-06 20:54:38.171875,-17.59
2019-08-06 20:54:38.187500,-20.02
2019-08-06 20:54:38.203125,-23.58
2019-08-06 20:54:38.218750,-27.56
2019-08-06 20:54:38.234375,-30.69
2019-08-06 20:54:38.250000,-31.55
2019-08-06 20:54:38.265625,-28.98
2019-08-06 20:54:38.281250,-22.58
2019-08-06 20:54:38.296875,-12.82
2019-08-06 20:54:38.312500,-0.82
2019-08-06 20:54:38.328125,12.04
2019-08-06 20:54:38.343750,24.09
2019-08-06 20:54:38.359375,33.31
2019-08-06 20:54:38.375000,37.85
2019-08-06 20:54:38.390625,36.62
2019-08-06 20:54:38.406250,30.01
2019-08-06 20:54:38.421875,19.95
2019-08-06 20:54:38.437500,9.1
2019-08-06 20:54:38.453125,-0.34
2019-08-06 20:54:38.468750,-7.32
2019-08-06 20:54:38.484375,-11.68
2019-08-06 20:54:38.500000,-13.34
2019-08-06 20:54:38.515625,-12.0
2019-08-06 20:54:38.531250,-7.5
2019-08-06 20:54:38.546875,-0.75
2019-08-06 20:54:38.562500,6.14
2019-08-06 20:54:38.578125,10.82
2019-08-06 20:54:38.593750,12.28
2019-08-06 20:54:38.609375,11.69
2019-08-06 20:54:38.625000,11.51
2019-08-06 20:54:38.640625,13.54
2019-08-06 20:54:38.656250,17.32
2019-08-06 20:54:38.671875,20.18
2019-08-06 20:54:38.687500,19.19
2019-08-06 20:54:38.703125,13.34
2019-08-06 20:54:38.718750,4.38
2019-08-06 20:54:38.734375,-4.3
2019-08-06 20:54:38.750000,-9.93
2019-08-06 20:54:38.765625,-11.85
2019-08-06 20:54:38.781250,-11.39
2019-08-06 20:54:38.796875,-10.45
2019-08-06 20:54:38.812500,-10.05
2019-08-06 20:54:38.828125,-9.84
2019-08-06 20:54:38.843750,-8.77
2019-08-06 20:54:38.859375,-6.15
2019-08-06 20:54:38.875000,-2.06
2019-08-06 20:54:38.890625,2.77
2019-08-06 20:54:38.906250,7.36
2019-08-06 20:54:38.921875,10.74
2019-08-06 20:54:38.937500,12.0
2019-08-06 20:54:38.953125,10.52
2019-08-06 20:54:38.968750,6.58
2019-08-06 20:54:38.984375,1.72
2019-08-06 20:54:39.000000,-1.58
2019-08-06 20:54:39.015625,-1.19
2019-08-06 20:54:39.031250,3.17
2019-08-06 20:54:39.046875,9.35
2019-08-06 20:54:39.062500,13.73
2019-08-06 20:54:39.078125,13.2
2019-08-06 20:54:39.093750,7.07
2019-08-06 20:54:39.109375,-2.53
2019-08-06 20:54:39.125000,-12.0
2019-08-06 20:54:39.140625,-18.31
2019-08-06 20:54:39.156250,-20.48
2019-08-06 20:54:39.171875,-19.5
2019-08-06 20:54:39.187500,-17.08
2019-08-06 20:54:39.203125,-14.43
2019-08-06 20:54:39.218750,-11.69
2019-08-06 20:54:39.234375,-8.4
2019-08-06 20:54:39.250000,-4.25
2019-08-06 20:54:39.265625,0.51
2019-08-06 20:54:39.281250,5.25
2019-08-06 20:54:39.296875,9.29
2019-08-06 20:54:39.312500,12.13
2019-08-06 20:54:39.328125,13.26
2019-08-06 20:54:39.343750,12.17
2019-08-06 20:54:39.359375,8.71
2019-08-06 20:54:39.375000,3.61
2019-08-06 20:54:39.390625,-1.55
2019-08-06 20:54:39.406250,-5.0
2019-08-06 20:54:39.421875,-5.89
2019-08-06 20:54:39.437500,-4.9
2019-08-06 20:54:39.453125,-3.81
2019-08-06 20:54:39.468750,-4.14
2019-08-06 20:54:39.484375,-5.88
2019-08-06 20:54:39.500000,-7.5
2019-08-06 20:54:39.515625,-7.09
2019-08-06 20:54:39.531250,-4.08
2019-08-06 20:54:39.546875,0.08
2019-08-06 20:54:39.562500,2.88
2019-08-06 20:54:39.578125,2.6
2019-08-06 20:54:39.593750,-0.38
2019-08-06 20:54:39.609375,-3.79
2019-08-06 20:54:39.625000,-5.02
2019-08-06 20:54:39.640625,-3.02
2019-08-06 20:54:39.656250,1.02
2019-08-06 20:54:39.671875,4.52
2019-08-06 20:54:39.687500,5.21
2019-08-06 20:54:39.703125,2.54
2019-08-06 20:54:39.718750,-2.24
2019-08-06 20:54:39.734375,-6.81
2019-08-06 20:54:39.750000,-9.08
2019-08-06 20:54:39.765625,-7.97
2019-08-06 20:54:39.781250,-3.73
2019-08-06 20:54:39.796875,2.34
2019-08-06 20:54:39.812500,8.37
2019-08-06 20:54:39.828125,12.48
2019-08-06 20:54:39.843750,13.37
2019-08-06 20:54:39.859375,10.86
2019-08-06 20:54:39.875000,6.0
2019-08-06 20:54:39.890625,0.6
2019-08-06 20:54:39.906250,-3.63
2019-08-06 20:54:39.921875,-5.85
2019-08-06 20:54:39.937500,-6.36
2019-08-06 20:54:39.953125,-6.16
2019-08-06 20:54:39.968750,-6.22
2019-08-06 20:54:39.984375,-6.74
2019-08-06 20:54:40.000000,-7.21
2019-08-06 20:54:40.015625,-6.94
2019-08-06 20:54:40.031250,-5.68
2019-08-06 20:54:40.046875,-4.03
2019-08-06 20:54:40.062500,-3.07
2019-08-06 20:54:40.078125,-3.5
2019-08-06 20:54:40.093750,-5.12
2019-08-06 20:54:40.109375,-6.82
2019-08-06 20:54:40.125000,-7.18
2019-08-06 20:54:40.140625,-5.46
2019-08-06 20:54:40.156250,-2.12
2019-08-06 20:54:40.171875,1.32
2019-08-06 20:54:40.187500,3.2
2019-08-06 20:54:40.203125,2.76
2019-08-06 20:54:40.218750,0.47
2019-08-06 20:54:40.234375,-2.15
2019-08-06 20:54:40.250000,-3.45
2019-08-06 20:54:40.265625,-2.56
2019-08-06 20:54:40.281250,0.22
2019-08-06 20:54:40.296875,3.61
2019-08-06 20:54:40.312500,6.1
2019-08-06 20:54:40.328125,6.64
2019-08-06 20:54:40.343750,5.17
2019-08-06 20:54:40.359375,2.44
2019-08-06 20:54:40.375000,-0.28
2019-08-06 20:54:40.390625,-1.87
2019-08-06 20:54:40.406250,-1.89
2019-08-06 20:54:40.421875,-0.68
2019-08-06 20:54:40.437500,0.78
2019-08-06 20:54:40.453125,1.49
2019-08-06 20:54:40.468750,1.04
2019-08-06 20:54:40.484375,-0.1
2019-08-06 20:54:40.500000,-0.93
2019-08-06 20:54:40.515625,-0.62
2019-08-06 20:54:40.531250,0.9
2019-08-06 20:54:40.546875,2.89
2019-08-06 20:54:40.562500,4.34
2019-08-06 20:54:40.578125,4.67
2019-08-06 20:54:40.593750,4.1
2019-08-06 20:54:40.609375,3.37
2019-08-06 20:54:40.625000,3.11
2019-08-06 20:54:40.640625,3.35
2019-08-06 20:54:40.656250,3.47
2019-08-06 20:54:40.671875,2.79
2019-08-06 20:54:40.687500,1.17
2019-08-06 20:54:40.703125,-0.82
2019-08-06 20:54:40.718750,-2.15
2019-08-06 20:54:40.734375,-2.02
2019-08-06 20:54:40.750000,-0.39
2019-08-06 20:54:40.765625,1.98
2019-08-06 20:54:40.781250,4.03
2019-08-06 20:54:40.796875,4.96
2019-08-06 20:54:40.812500,4.54
2019-08-06 20:54:40.828125,3.04
2019-08-06 20:54:40.843750,0.9
2019-08-06 20:54:40.859375,-1.45
2019-08-06 20:54:40.875000,-3.57
2019-08-06 20:54:40.890625,-4.91
2019-08-06 20:54:40.906250,-4.98
2019-08-06 20:54:40.921875,-3.71
2019-08-06 20:54:40.937500,-1.79
2019-08-06 20:54:40.953125,-0.55
2019-08-06 20:54:40.968750,-1.31
2019-08-06 20:54:40.984375,-4.56
2019-08-06 20:54:41.000000,-9.42
2019-08-06 20:54:41.015625,-13.89
2019-08-06 20:54:41.031250,-15.85
2019-08-06 20:54:41.046875,-14.23
2019-08-06 20:54:41.062500,-9.66
2019-08-06 20:54:41.078125,-4.14
2019-08-06 20:54:41.093750,0.04
2019-08-06 20:54:41.109375,1.55
2019-08-06 20:54:41.125000,0.7
2019-08-06 20:54:41.140625,-0.91
2019-08-06 20:54:41.156250,-1.4
2019-08-06 20:54:41.171875,0.11
2019-08-06 20:54:41.187500,3.02
2019-08-06 20:54:41.203125,5.57
2019-08-06 20:54:41.218750,5.92
2019-08-06 20:54:41.234375,3.2
2019-08-06 20:54:41.250000,-2.03
2019-08-06 20:54:41.265625,-8.06
2019-08-06 20:54:41.281250,-12.93
2019-08-06 20:54:41.296875,-15.31
2019-08-06 20:54:41.312500,-14.91
2019-08-06 20:54:41.328125,-12.19
2019-08-06 20:54:41.343750,-7.67
2019-08-06 20:54:41.359375,-1.69
2019-08-06 20:54:41.375000,5.37
2019-08-06 20:54:41.390625,12.46
2019-08-06 20:54:41.406250,17.45
2019-08-06 20:54:41.421875,17.63
2019-08-06 20:54:41.437500,11.04
2019-08-06 20:54:41.453125,-2.07
2019-08-06 20:54:41.468750,-18.59
2019-08-06 20:54:41.484375,-33.31
2019-08-06 20:54:41.500000,-40.92
2019-08-06 20:54:41.515625,-38.21
2019-08-06 20:54:41.531250,-25.4
2019-08-06 20:54:41.546875,-6.14
2019-08-06 20:54:41.562500,13.97
2019-08-06 20:54:41.578125,29.49
2019-08-06 20:54:41.593750,37.08
2019-08-06 20:54:41.609375,36.45
2019-08-06 20:54:41.625000,29.97
2019-08-06 20:54:41.640625,21.29
2019-08-06 20:54:41.656250,13.7
2019-08-06 20:54:41.671875,8.83
2019-08-06 20:54:41.687500,6.39
2019-08-06 20:54:41.703125,4.96
2019-08-06 20:54:41.718750,3.16
2019-08-06 20:54:41.734375,0.54
2019-08-06 20:54:41.750000,-2.34
2019-08-06 20:54:41.765625,-4.55
2019-08-06 20:54:41.781250,-5.49
2019-08-06 20:54:41.796875,-5.24
2019-08-06 20:54:41.812500,-4.3
2019-08-06 20:54:41.828125,-3.18
2019-08-06 20:54:41.843750,-1.92
2019-08-06 20:54:41.859375,-0.33
2019-08-06 20:54:41.875000,1.64
2019-08-06 20:54:41.890625,3.72
2019-08-06 20:54:41.906250,5.32
2019-08-06 20:54:41.921875,5.69
2019-08-06 20:54:41.937500,4.08
2019-08-06 20:54:41.953125,-0.28
2019-08-06 20:54:41.968750,-7.95
2019-08-06 20:54:41.984375,-18.75
2019-08-06 20:54:42.000000,-31.04
2019-08-06 20:54:42.015625,-41.58
2019-08-06 20:54:42.031250,-46.27
2019-08-06 20:54:42.046875,-42.08
2019-08-06 20:54:42.062500,-28.97
2019-08-06 20:54:42.078125,-10.47
2019-08-06 20:54:42.093750,7.48
2019-08-06 20:54:42.109375,19.04
2019-08-06 20:54:42.125000,20.99
2019-08-06 20:54:42.140625,13.67
2019-08-06 20:54:42.156250,0.29
2019-08-06 20:54:42.171875,-14.63
2019-08-06 20:54:42.187500,-26.84
2019-08-06 20:54:42.203125,-33.18
2019-08-06 20:54:42.218750,-32.03
2019-08-06 20:54:42.234375,-23.44
2019-08-06 20:54:42.250000,-9.34
2019-08-06 20:54:42.265625,6.88
2019-08-06 20:54:42.281250,21.22
2019-08-06 20:54:42.296875,30.49
2019-08-06 20:54:42.312500,33.36
2019-08-06 20:54:42.328125,30.58
2019-08-06 20:54:42.343750,24.38
2019-08-06 20:54:42.359375,17.45
2019-08-06 20:54:42.375000,12.13
2019-08-06 20:54:42.390625,10.11
2019-08-06 20:54:42.406250,12.2
2019-08-06 20:54:42.421875,17.79
2019-08-06 20:54:42.437500,24.28
2019-08-06 20:54:42.453125,27.16
2019-08-06 20:54:42.468750,21.41
2019-08-06 20:54:42.484375,4.01
2019-08-06 20:54:42.500000,-23.6
2019-08-06 20:54:42.515625,-54.89
2019-08-06 20:54:42.531250,-80.27
2019-08-06 20:54:42.546875,-91.29
2019-08-06 20:54:42.562500,-85.5
2019-08-06 20:54:42.578125,-68.38
2019-08-06 20:54:42.593750,-51.52
2019-08-06 20:54:42.609375,-47.19
2019-08-06 20:54:42.625000,-61.73
2019-08-06 20:54:42.640625,-91.3
2019-08-06 20:54:42.656250,-122.4
2019-08-06 20:54:42.671875,-137.47
2019-08-06 20:54:42.687500,-122.86
2019-08-06 20:54:42.703125,-75.58
2019-08-06 20:54:42.718750,-5.18
2019-08-06 20:54:42.734375,70.3
2019-08-06 20:54:42.750000,131.9
2019-08-06 20:54:42.765625,167.18
2019-08-06 20:54:42.781250,173.87
2019-08-06 20:54:42.796875,158.86
2019-08-06 20:54:42.812500,134.26
2019-08-06 20:54:42.828125,112.71
2019-08-06 20:54:42.843750,103.79
2019-08-06 20:54:42.859375,112.49
2019-08-06 20:54:42.875000,138.74
2019-08-06 20:54:42.890625,177.62
2019-08-06 20:54:42.906250,220.93
2019-08-06 20:54:42.921875,259.15
2019-08-06 20:54:42.937500,283.56
2019-08-06 20:54:42.953125,288.28
2019-08-06 20:54:42.968750,271.59
2019-08-06 20:54:42.984375,236.44
2019-08-06 20:54:43.000000,189.98
2019-08-06 20:54:43.015625,141.82
2019-08-06 20:54:43.031250,101.03
2019-08-06 20:54:43.046875,73.05
2019-08-06 20:54:43.062500,57.26
2019-08-06 20:54:43.078125,47.19
2019-08-06 20:54:43.093750,33.48
2019-08-06 20:54:43.109375,8.76
2019-08-06 20:54:43.125000,-28.25
2019-08-06 20:54:43.140625,-72.03
2019-08-06 20:54:43.156250,-113.27
2019-08-06 20:54:43.171875,-144.29
2019-08-06 20:54:43.187500,-162.5
2019-08-06 20:54:43.203125,-170.24
2019-08-06 20:54:43.218750,-171.97
2019-08-06 20:54:43.234375,-170.29
2019-08-06 20:54:43.250000,-165.12
2019-08-06 20:54:43.265625,-155.46
2019-08-06 20:54:43.281250,-141.96
2019-08-06 20:54:43.296875,-127.89
2019-08-06 20:54:43.312500,-117.13
2019-08-06 20:54:43.328125,-111.31
2019-08-06 20:54:43.343750,-108.66
2019-08-06 20:54:43.359375,-105.36
2019-08-06 20:54:43.375000,-98.74
2019-08-06 20:54:43.390625,-89.92
2019-08-06 20:54:43.406250,-83.41
2019-08-06 20:54:43.421875,-83.91
2019-08-06 20:54:43.437500,-92.79
2019-08-06 20:54:43.453125,-106.58
2019-08-06 20:54:43.468750,-118.25
2019-08-06 20:54:43.484375,-121.04
2019-08-06 20:54:43.500000,-111.62
2019-08-06 20:54:43.515625,-90.8
2019-08-06 20:54:43.531250,-62.14
2019-08-06 20:54:43.546875,-29.88
2019-08-06 20:54:43.562500,2.18
2019-08-06 20:54:43.578125,30.57
2019-08-06 20:54:43.593750,51.87
2019-08-06 20:54:43.609375,63.46
2019-08-06 20:54:43.625000,64.83
2019-08-06 20:54:43.640625,58.52
2019-08-06 20:54:43.656250,49.67
2019-08-06 20:54:43.671875,43.67
2019-08-06 20:54:43.687500,43.61
2019-08-06 20:54:43.703125,48.6
2019-08-06 20:54:43.718750,54.2
2019-08-06 20:54:43.734375,54.91
2019-08-06 20:54:43.750000,46.96
2019-08-06 20:54:43.765625,29.94
2019-08-06 20:54:43.781250,6.73
2019-08-06 20:54:43.796875,-17.88
2019-08-06 20:54:43.812500,-38.88
2019-08-06 20:54:43.828125,-52.04
2019-08-06 20:54:43.843750,-54.47
2019-08-06 20:54:43.859375,-45.09
2019-08-06 20:54:43.875000,-25.29
2019-08-06 20:54:43.890625,0.71
2019-08-06 20:54:43.906250,26.46
2019-08-06 20:54:43.921875,45.32
2019-08-06 20:54:43.937500,52.99
2019-08-06 20:54:43.953125,49.29
2019-08-06 20:54:43.968750,38.27
2019-08-06 20:54:43.984375,26.22
2019-08-06 20:54:44.000000,18.44
2019-08-06 20:54:44.015625,16.74
2019-08-06 20:54:44.031250,18.91
2019-08-06 20:54:44.046875,20.6
2019-08-06 20:54:44.062500,18.24
2019-08-06 20:54:44.078125,11.2
2019-08-06 20:54:44.093750,1.86
2019-08-06 20:54:44.109375,-6.17
2019-08-06 20:54:44.125000,-10.48
2019-08-06 20:54:44.140625,-10.99
2019-08-06 20:54:44.156250,-9.63
2019-08-06 20:54:44.171875,-8.64
2019-08-06 20:54:44.187500,-9.01
2019-08-06 20:54:44.203125,-10.21
2019-08-06 20:54:44.218750,-11.01
2019-08-06 20:54:44.234375,-10.76
2019-08-06 20:54:44.250000,-9.98
2019-08-06 20:54:44.265625,-9.81
2019-08-06 20:54:44.281250,-10.99
2019-08-06 20:54:44.296875,-13.19
2019-08-06 20:54:44.312500,-15.42
2019-08-06 20:54:44.328125,-16.77
2019-08-06 20:54:44.343750,-17.08
2019-08-06 20:54:44.359375,-16.66
2019-08-06 20:54:44.375000,-15.67
2019-08-06 20:54:44.390625,-13.77
2019-08-06 20:54:44.406250,-10.54
2019-08-06 20:54:44.421875,-6.35
2019-08-06 20:54:44.437500,-2.84
2019-08-06 20:54:44.453125,-2.38
2019-08-06 20:54:44.468750,-6.48
2019-08-06 20:54:44.484375,-14.52
2019-08-06 20:54:44.500000,-23.53
2019-08-06 20:54:44.515625,-29.52
2019-08-06 20:54:44.531250,-29.67
2019-08-06 20:54:44.546875,-23.84
2019-08-06 20:54:44.562500,-14.53
2019-08-06 20:54:44.578125,-5.31
2019-08-06 20:54:44.593750,1.18
2019-08-06 20:54:44.609375,4.3
2019-08-06 20:54:44.625000,5.16
2019-08-06 20:54:44.640625,5.37
2019-08-06 20:54:44.656250,6.02
2019-08-06 20:54:44.671875,7.21
2019-08-06 20:54:44.687500,8.32
2019-08-06 20:54:44.703125,8.61
2019-08-06 20:54:44.718750,7.61
2019-08-06 20:54:44.734375,5.51
2019-08-06 20:54:44.750000,3.2
2019-08-06 20:54:44.765625,1.99
2019-08-06 20:54:44.781250,3.01
2019-08-06 20:54:44.796875,6.58
2019-08-06 20:54:44.812500,11.91
2019-08-06 20:54:44.828125,17.4
2019-08-06 20:54:44.843750,21.55
2019-08-06 20:54:44.859375,23.9
2019-08-06 20:54:44.875000,25.25
2019-08-06 20:54:44.890625,27.22
2019-08-06 20:54:44.906250,30.89
2019-08-06 20:54:44.921875,35.57
2019-08-06 20:54:44.937500,38.46
2019-08-06 20:54:44.953125,35.64
2019-08-06 20:54:44.968750,24.18
2019-08-06 20:54:44.984375,4.28
2019-08-06 20:54:45.000000,-19.84
2019-08-06 20:54:45.015625,-41.09
2019-08-06 20:54:45.031250,-52.49
2019-08-06 20:54:45.046875,-50.34
2019-08-06 20:54:45.062500,-36.07
2019-08-06 20:54:45.078125,-15.72
2019-08-06 20:54:45.093750,2.86
2019-08-06 20:54:45.109375,13.62
2019-08-06 20:54:45.125000,14.99
2019-08-06 20:54:45.140625,10.02
2019-08-06 20:54:45.156250,4.23
2019-08-06 20:54:45.171875,2.41
2019-08-06 20:54:45.187500,6.09
2019-08-06 20:54:45.203125,13.28
2019-08-06 20:54:45.218750,20.03
2019-08-06 20:54:45.234375,23.07
2019-08-06 20:54:45.250000,21.37
2019-08-06 20:54:45.265625,16.36
2019-08-06 20:54:45.281250,10.66
2019-08-06 20:54:45.296875,6.47
2019-08-06 20:54:45.312500,4.45
2019-08-06 20:54:45.328125,3.55
2019-08-06 20:54:45.343750,1.71
2019-08-06 20:54:45.359375,-2.86
2019-08-06 20:54:45.375000,-10.45
2019-08-06 20:54:45.390625,-19.37
2019-08-06 20:54:45.406250,-26.53
2019-08-06 20:54:45.421875,-28.93
2019-08-06 20:54:45.437500,-25.27
2019-08-06 20:54:45.453125,-16.78
2019-08-06 20:54:45.468750,-6.86
2019-08-06 20:54:45.484375,0.54
2019-08-06 20:54:45.500000,2.86
2019-08-06 20:54:45.515625,0.21
2019-08-06 20:54:45.531250,-4.97
2019-08-06 20:54:45.546875,-9.3
2019-08-06 20:54:45.562500,-10.24
2019-08-06 20:54:45.578125,-7.23
2019-08-06 20:54:45.593750,-1.83
2019-08-06 20:54:45.609375,3.34
2019-08-06 20:54:45.625000,5.68
2019-08-06 20:54:45.640625,3.52
2019-08-06 20:54:45.656250,-3.37
2019-08-06 20:54:45.671875,-13.62
2019-08-06 20:54:45.687500,-24.34
2019-08-06 20:54:45.703125,-31.69
2019-08-06 20:54:45.718750,-32.1
2019-08-06 20:54:45.734375,-23.66
2019-08-06 20:54:45.750000,-6.73
2019-08-06 20:54:45.765625,15.61
2019-08-06 20:54:45.781250,38.65
2019-08-06 20:54:45.796875,57.6
2019-08-06 20:54:45.812500,68.99
2019-08-06 20:54:45.828125,71.26
2019-08-06 20:54:45.843750,64.62
2019-08-06 20:54:45.859375,50.79
2019-08-06 20:54:45.875000,32.56
2019-08-06 20:54:45.890625,13.99
2019-08-06 20:54:45.906250,-0.84
2019-08-06 20:54:45.921875,-9.28
2019-08-06 20:54:45.937500,-11.69
2019-08-06 20:54:45.953125,-12.15
2019-08-06 20:54:45.968750,-16.28
2019-08-06 20:54:45.984375,-28.02
2019-08-06 20:54:46.000000,-46.46
2019-08-06 20:54:46.015625,-65.03
2019-08-06 20:54:46.031250,-73.98
2019-08-06 20:54:46.046875,-65.62
2019-08-06 20:54:46.062500,-38.61
2019-08-06 20:54:46.078125,1.0
2019-08-06 20:54:46.093750,42.38
2019-08-06 20:54:46.109375,75.92
2019-08-06 20:54:46.125000,97.75
2019-08-06 20:54:46.140625,110.92
2019-08-06 20:54:46.156250,121.62
2019-08-06 20:54:46.171875,136.14
2019-08-06 20:54:46.187500,157.12
2019-08-06 20:54:46.203125,182.55
2019-08-06 20:54:46.218750,207.53
2019-08-06 20:54:46.234375,226.62
2019-08-06 20:54:46.250000,237.45
2019-08-06 20:54:46.265625,240.7
2019-08-06 20:54:46.281250,238.61
2019-08-06 20:54:46.296875,233.02
2019-08-06 20:54:46.312500,224.23
2019-08-06 20:54:46.328125,211.01
2019-08-06 20:54:46.343750,192.03
2019-08-06 20:54:46.359375,169.11
2019-08-06 20:54:46.375000,143.72
2019-08-06 20:54:46.390625,118.8
2019-08-06 20:54:46.406250,97.1
2019-08-06 20:54:46.421875,80.16
2019-08-06 20:54:46.437500,67.99
2019-08-06 20:54:46.453125,58.88
2019-08-06 20:54:46.468750,50.13
2019-08-06 20:54:46.484375,39.12
2019-08-06 20:54:46.500000,23.81
2019-08-06 20:54:46.515625,2.36
2019-08-06 20:54:46.531250,-25.96
2019-08-06 20:54:46.546875,-61.72
2019-08-06 20:54:46.562500,-104.9
2019-08-06 20:54:46.578125,-155.13
2019-08-06 20:54:46.593750,-211.82
2019-08-06 20:54:46.609375,-274.17
2019-08-06 20:54:46.625000,-340.89
2019-08-06 20:54:46.640625,-407.25
2019-08-06 20:54:46.656250,-467.08
2019-08-06 20:54:46.671875,-512.39
2019-08-06 20:54:46.687500,-536.46
2019-08-06 20:54:46.703125,-535.91
2019-08-06 20:54:46.718750,-512.29
2019-08-06 20:54:46.734375,-471.66
2019-08-06 20:54:46.750000,-422.37
2019-08-06 20:54:46.765625,-371.92
2019-08-06 20:54:46.781250,-324.59
2019-08-06 20:54:46.796875,-284.05
2019-08-06 20:54:46.812500,-248.21
2019-08-06 20:54:46.828125,-213.95
2019-08-06 20:54:46.843750,-178.84
2019-08-06 20:54:46.859375,-142.17
2019-08-06 20:54:46.875000,-104.43
2019-08-06 20:54:46.890625,-66.28
2019-08-06 20:54:46.906250,-27.96
2019-08-06 20:54:46.921875,10.52
2019-08-06 20:54:46.937500,48.94
2019-08-06 20:54:46.953125,86.82
2019-08-06 20:54:46.968750,122.13
2019-08-06 20:54:46.984375,152.77
2019-08-06 20:54:47.000000,177.69
2019-08-06 20:54:47.015625,197.24
2019-08-06 20:54:47.031250,212.33
2019-08-06 20:54:47.046875,223.22
2019-08-06 20:54:47.062500,229.11
2019-08-06 20:54:47.078125,228.46
2019-08-06 20:54:47.093750,220.6
2019-08-06 20:54:47.109375,205.92
2019-08-06 20:54:47.125000,186.32
2019-08-06 20:54:47.140625,164.71
2019-08-06 20:54:47.156250,144.3
2019-08-06 20:54:47.171875,128.12
2019-08-06 20:54:47.187500,118.42
2019-08-06 20:54:47.203125,116.1
2019-08-06 20:54:47.218750,120.01
2019-08-06 20:54:47.234375,126.92
2019-08-06 20:54:47.250000,131.96
2019-08-06 20:54:47.265625,130.88
2019-08-06 20:54:47.281250,122.07
2019-08-06 20:54:47.296875,107.42
2019-08-06 20:54:47.312500,91.11
2019-08-06 20:54:47.328125,76.64
2019-08-06 20:54:47.343750,64.7
2019-08-06 20:54:47.359375,53.29
2019-08-06 20:54:47.375000,40.31
2019-08-06 20:54:47.390625,26.23
2019-08-06 20:54:47.406250,14.84
2019-08-06 20:54:47.421875,11.07
2019-08-06 20:54:47.437500,17.51
2019-08-06 20:54:47.453125,32.02
2019-08-06 20:54:47.468750,48.18
2019-08-06 20:54:47.484375,58.2
2019-08-06 20:54:47.500000,56.43
2019-08-06 20:54:47.515625,41.7
2019-08-06 20:54:47.531250,17.29
2019-08-06 20:54:47.546875,-10.79
2019-08-06 20:54:47.562500,-36.17
2019-08-06 20:54:47.578125,-54.25
2019-08-06 20:54:47.593750,-63.31
2019-08-06 20:54:47.609375,-64.27
2019-08-06 20:54:47.625000,-59.69
2019-08-06 20:54:47.640625,-52.37
2019-08-06 20:54:47.656250,-44.47
2019-08-06 20:54:47.671875,-37.7
2019-08-06 20:54:47.687500,-34.12
2019-08-06 20:54:47.703125,-36.52
2019-08-06 20:54:47.718750,-47.37
2019-08-06 20:54:47.734375,-66.88
2019-08-06 20:54:47.750000,-91.57
2019-08-06 20:54:47.765625,-114.4
2019-08-06 20:54:47.781250,-127.51
2019-08-06 20:54:47.796875,-125.77
2019-08-06 20:54:47.812500,-109.13
2019-08-06 20:54:47.828125,-82.2
2019-08-06 20:54:47.843750,-51.6
2019-08-06 20:54:47.859375,-23.04
2019-08-06 20:54:47.875000,-0.22
2019-08-06 20:54:47.890625,14.45
2019-08-06 20:54:47.906250,18.79
2019-08-06 20:54:47.921875,10.92
2019-08-06 20:54:47.937500,-8.88
2019-08-06 20:54:47.953125,-35.69
2019-08-06 20:54:47.968750,-60.02
2019-08-06 20:54:47.984375,-70.65
2019-08-06 20:54:48.000000,-59.59
2019-08-06 20:54:48.015625,-26.31
2019-08-06 20:54:48.031250,21.47
2019-08-06 20:54:48.046875,70.7
2019-08-06 20:54:48.062500,108.48
2019-08-06 20:54:48.078125,127.17
2019-08-06 20:54:48.093750,126.18
2019-08-06 20:54:48.109375,110.37
2019-08-06 20:54:48.125000,85.78
2019-08-06 20:54:48.140625,56.33
2019-08-06 20:54:48.156250,23.17
2019-08-06 20:54:48.171875,-12.67
2019-08-06 20:54:48.187500,-46.63
2019-08-06 20:54:48.203125,-69.34
2019-08-06 20:54:48.218750,-69.75
2019-08-06 20:54:48.234375,-41.62
2019-08-06 20:54:48.250000,10.89
2019-08-06 20:54:48.265625,71.91
2019-08-06 20:54:48.281250,119.45
2019-08-06 20:54:48.296875,135.46
2019-08-06 20:54:48.312500,114.93
2019-08-06 20:54:48.328125,68.71
2019-08-06 20:54:48.343750,18.42
2019-08-06 20:54:48.359375,-13.92
2019-08-06 20:54:48.375000,-15.84
2019-08-06 20:54:48.390625,10.71
2019-08-06 20:54:48.406250,52.01
2019-08-06 20:54:48.421875,89.65
2019-08-06 20:54:48.437500,108.0
2019-08-06 20:54:48.453125,100.05
2019-08-06 20:54:48.468750,68.88
2019-08-06 20:54:48.484375,25.82
2019-08-06 20:54:48.500000,-13.58
2019-08-06 20:54:48.515625,-35.26
2019-08-06 20:54:48.531250,-31.58
2019-08-06 20:54:48.546875,-4.53
2019-08-06 20:54:48.562500,34.87
2019-08-06 20:54:48.578125,70.26
2019-08-06 20:54:48.593750,86.03
2019-08-06 20:54:48.609375,73.5
2019-08-06 20:54:48.625000,34.0
2019-08-06 20:54:48.640625,-21.71
2019-08-06 20:54:48.656250,-77.72
2019-08-06 20:54:48.671875,-119.14
2019-08-06 20:54:48.687500,-137.22
2019-08-06 20:54:48.703125,-131.94
2019-08-06 20:54:48.718750,-111.31
2019-08-06 20:54:48.734375,-87.97
2019-08-06 20:54:48.750000,-73.42
2019-08-06 20:54:48.765625,-73.46
2019-08-06 20:54:48.781250,-86.0
2019-08-06 20:54:48.796875,-102.75
2019-08-06 20:54:48.812500,-113.65
2019-08-06 20:54:48.828125,-111.92
2019-08-06 20:54:48.843750,-96.83
2019-08-06 20:54:48.859375,-73.08
2019-08-06 20:54:48.875000,-47.61
2019-08-06 20:54:48.890625,-26.43
2019-08-06 20:54:48.906250,-13.2
2019-08-06 20:54:48.921875,-9.77
2019-08-06 20:54:48.937500,-17.17
2019-08-06 20:54:48.953125,-35.14
2019-08-06 20:54:48.968750,-60.48
2019-08-06 20:54:48.984375,-86.09
2019-08-06 20:54:49.000000,-102.03
2019-08-06 20:54:49.015625,-99.58
2019-08-06 20:54:49.031250,-75.69
2019-08-06 20:54:49.046875,-35.25
2019-08-06 20:54:49.062500,11.66
2019-08-06 20:54:49.078125,54.98
2019-08-06 20:54:49.093750,89.18
2019-08-06 20:54:49.109375,114.68
2019-08-06 20:54:49.125000,134.56
2019-08-06 20:54:49.140625,149.97
2019-08-06 20:54:49.156250,157.39
2019-08-06 20:54:49.171875,150.22
2019-08-06 20:54:49.187500,124.03
2019-08-06 20:54:49.203125,81.82
2019-08-06 20:54:49.218750,35.59
2019-08-06 20:54:49.234375,1.86
2019-08-06 20:54:49.250000,-6.08
2019-08-06 20:54:49.265625,14.85
2019-08-06 20:54:49.281250,55.44
2019-08-06 20:54:49.296875,98.19
2019-08-06 20:54:49.312500,125.42
2019-08-06 20:54:49.328125,126.93
2019-08-06 20:54:49.343750,103.71
2019-08-06 20:54:49.359375,66.3
2019-08-06 20:54:49.375000,28.94
2019-08-06 20:54:49.390625,2.88
2019-08-06 20:54:49.406250,-8.15
2019-08-06 20:54:49.421875,-8.81
2019-08-06 20:54:49.437500,-8.69
2019-08-06 20:54:49.453125,-16.62
2019-08-06 20:54:49.468750,-35.55
2019-08-06 20:54:49.484375,-60.45
2019-08-06 20:54:49.500000,-80.5
2019-08-06 20:54:49.515625,-84.61
2019-08-06 20:54:49.531250,-67.48
2019-08-06 20:54:49.546875,-33.4
2019-08-06 20:54:49.562500,4.87
2019-08-06 20:54:49.578125,31.93
2019-08-06 20:54:49.593750,37.37
2019-08-06 20:54:49.609375,21.33
2019-08-06 20:54:49.625000,-5.62
2019-08-06 20:54:49.640625,-28.32
2019-08-06 20:54:49.656250,-35.66
2019-08-06 20:54:49.671875,-26.74
2019-08-06 20:54:49.687500,-10.94
2019-08-06 20:54:49.703125,-1.85
2019-08-06 20:54:49.718750,-8.46
2019-08-06 20:54:49.734375,-29.33
2019-08-06 20:54:49.750000,-53.44
2019-08-06 20:54:49.765625,-66.84
2019-08-06 20:54:49.781250,-61.19
2019-08-06 20:54:49.796875,-38.73
2019-08-06 20:54:49.812500,-10.57
2019-08-06 20:54:49.828125,9.93
2019-08-06 20:54:49.843750,14.54
2019-08-06 20:54:49.859375,3.66
2019-08-06 20:54:49.875000,-15.45
2019-08-06 20:54:49.890625,-33.77
2019-08-06 20:54:49.906250,-44.93
2019-08-06 20:54:49.921875,-46.95
2019-08-06 20:54:49.937500,-41.1
2019-08-06 20:54:49.953125,-29.73
2019-08-06 20:54:49.968750,-15.23
2019-08-06 20:54:49.984375,-0.12
2019-08-06 20:54:50.000000,12.61
2019-08-06 20:54:50.015625,19.9
2019-08-06 20:54:50.031250,20.07
2019-08-06 20:54:50.046875,13.97
2019-08-06 20:54:50.062500,4.67
2019-08-06 20:54:50.078125,-4.21
2019-08-06 20:54:50.093750,-10.54
2019-08-06 20:54:50.109375,-14.6
2019-08-06 20:54:50.125000,-18.16
2019-08-06 20:54:50.140625,-22.69
2019-08-06 20:54:50.156250,-27.99
2019-08-06 20:54:50.171875,-31.94
2019-08-06 20:54:50.187500,-31.49
2019-08-06 20:54:50.203125,-24.2
2019-08-06 20:54:50.218750,-9.56
2019-08-06 20:54:50.234375,10.31
2019-08-06 20:54:50.250000,30.76
2019-08-06 20:54:50.265625,45.83
2019-08-06 20:54:50.281250,50.13
2019-08-06 20:54:50.296875,41.01
2019-08-06 20:54:50.312500,20.0
2019-08-06 20:54:50.328125,-7.13
2019-08-06 20:54:50.343750,-32.08
2019-08-06 20:54:50.359375,-47.03
2019-08-06 20:54:50.375000,-47.75
2019-08-06 20:54:50.390625,-35.35
2019-08-06 20:54:50.406250,-15.57
2019-08-06 20:54:50.421875,4.13
2019-08-06 20:54:50.437500,18.09
2019-08-06 20:54:50.453125,24.72
2019-08-06 20:54:50.468750,26.32
2019-08-06 20:54:50.484375,26.81
2019-08-06 20:54:50.500000,28.81
2019-08-06 20:54:50.515625,32.16
2019-08-06 20:54:50.531250,34.35
2019-08-06 20:54:50.546875,32.73
2019-08-06 20:54:50.562500,26.9
2019-08-06 20:54:50.578125,19.27
2019-08-06 20:54:50.593750,13.27
2019-08-06 20:54:50.609375,10.47
2019-08-06 20:54:50.625000,8.58
2019-08-06 20:54:50.640625,2.44
2019-08-06 20:54:50.656250,-12.04
2019-08-06 20:54:50.671875,-33.49
2019-08-06 20:54:50.687500,-53.59
2019-08-06 20:54:50.703125,-60.36
2019-08-06 20:54:50.718750,-44.64
2019-08-06 20:54:50.734375,-6.49
2019-08-06 20:54:50.750000,42.72
2019-08-06 20:54:50.765625,84.28
2019-08-06 20:54:50.781250,100.52
2019-08-06 20:54:50.796875,83.17
2019-08-06 20:54:50.812500,37.34
2019-08-06 20:54:50.828125,-21.15
2019-08-06 20:54:50.843750,-73.59
2019-08-06 20:54:50.859375,-106.28
2019-08-06 20:54:50.875000,-115.42
2019-08-06 20:54:50.890625,-106.39
2019-08-06 20:54:50.906250,-88.88
2019-08-06 20:54:50.921875,-71.17
2019-08-06 20:54:50.937500,-56.71
2019-08-06 20:54:50.953125,-43.88
2019-08-06 20:54:50.968750,-28.41
2019-08-06 20:54:50.984375,-6.73
2019-08-06 20:54:51.000000,22.28
2019-08-06 20:54:51.015625,56.35
2019-08-06 20:54:51.031250,90.34
2019-08-06 20:54:51.046875,118.78
2019-08-06 20:54:51.062500,137.95
2019-08-06 20:54:51.078125,147.03
2019-08-06 20:54:51.093750,148.5
2019-08-06 20:54:51.109375,147.06
2019-08-06 20:54:51.125000,146.94
2019-08-06 20:54:51.140625,151.67
2019-08-06 20:54:51.156250,162.71
2019-08-06 20:54:51.171875,179.22
2019-08-06 20:54:51.187500,198.6
2019-08-06 20:54:51.203125,218.22
2019-08-06 20:54:51.218750,236.42
2019-08-06 20:54:51.234375,252.69
2019-08-06 20:54:51.250000,268.03
2019-08-06 20:54:51.265625,280.47
2019-08-06 20:54:51.281250,284.92
2019-08-06 20:54:51.296875,274.88
2019-08-06 20:54:51.312500,245.73
2019-08-06 20:54:51.328125,197.75
2019-08-06 20:54:51.343750,136.97
2019-08-06 20:54:51.359375,73.33
2019-08-06 20:54:51.375000,17.23
2019-08-06 20:54:51.390625,-24.3
2019-08-06 20:54:51.406250,-50.64
2019-08-06 20:54:51.421875,-66.9
2019-08-06 20:54:51.437500,-80.69
2019-08-06 20:54:51.453125,-98.33
2019-08-06 20:54:51.468750,-122.23
2019-08-06 20:54:51.484375,-150.46
2019-08-06 20:54:51.500000,-178.5
2019-08-06 20:54:51.515625,-201.1
2019-08-06 20:54:51.531250,-213.9
2019-08-06 20:54:51.546875,-214.5
2019-08-06 20:54:51.562500,-202.71
2019-08-06 20:54:51.578125,-181.18
2019-08-06 20:54:51.593750,-156.05
2019-08-06 20:54:51.609375,-136.81
2019-08-06 20:54:51.625000,-133.82
2019-08-06 20:54:51.640625,-154.16
2019-08-06 20:54:51.656250,-197.34
2019-08-06 20:54:51.671875,-253.85
2019-08-06 20:54:51.687500,-307.71
2019-08-06 20:54:51.703125,-341.53
2019-08-06 20:54:51.718750,-342.67
2019-08-06 20:54:51.734375,-307.63
2019-08-06 20:54:51.750000,-243.15
2019-08-06 20:54:51.765625,-163.41
2019-08-06 20:54:51.781250,-85.25
2019-08-06 20:54:51.796875,-23.27
2019-08-06 20:54:51.812500,13.18
2019-08-06 20:54:51.828125,21.02
2019-08-06 20:54:51.843750,2.79
2019-08-06 20:54:51.859375,-34.51
2019-08-06 20:54:51.875000,-81.23
2019-08-06 20:54:51.890625,-126.9
2019-08-06 20:54:51.906250,-162.33
2019-08-06 20:54:51.921875,-181.74
2019-08-06 20:54:51.937500,-183.94
2019-08-06 20:54:51.953125,-172.44
2019-08-06 20:54:51.968750,-150.55
2019-08-06 20:54:51.984375,-124.05
2019-08-06 20:54:52.000000,-99.13
2019-08-06 20:54:52.015625,-79.95
2019-08-06 20:54:52.031250,-67.95
2019-08-06 20:54:52.046875,-62.32
2019-08-06 20:54:52.062500,-60.72
2019-08-06 20:54:52.078125,-60.18
2019-08-06 20:54:52.093750,-56.82
2019-08-06 20:54:52.109375,-48.76
2019-08-06 20:54:52.125000,-31.44
2019-08-06 20:54:52.140625,-0.61
2019-08-06 20:54:52.156250,45.04
2019-08-06 20:54:52.171875,102.1
2019-08-06 20:54:52.187500,162.38
2019-08-06 20:54:52.203125,215.15
2019-08-06 20:54:52.218750,250.97
2019-08-06 20:54:52.234375,265.57
2019-08-06 20:54:52.250000,261.25
2019-08-06 20:54:52.265625,245.43
2019-08-06 20:54:52.281250,227.15
2019-08-06 20:54:52.296875,212.99
2019-08-06 20:54:52.312500,204.28
2019-08-06 20:54:52.328125,197.16
2019-08-06 20:54:52.343750,185.26
2019-08-06 20:54:52.359375,162.76
2019-08-06 20:54:52.375000,126.65
2019-08-06 20:54:52.390625,77.34
2019-08-06 20:54:52.406250,18.01
2019-08-06 20:54:52.421875,-46.1
2019-08-06 20:54:52.437500,-107.5
2019-08-06 20:54:52.453125,-156.54
2019-08-06 20:54:52.468750,-183.08
2019-08-06 20:54:52.484375,-179.77
2019-08-06 20:54:52.500000,-145.62
2019-08-06 20:54:52.515625,-87.45
2019-08-06 20:54:52.531250,-18.1
2019-08-06 20:54:52.546875,48.14
2019-08-06 20:54:52.562500,100.67
2019-08-06 20:54:52.578125,136.04
2019-08-06 20:54:52.593750,158.06
2019-08-06 20:54:52.609375,173.99
2019-08-06 20:54:52.625000,190.6
2019-08-06 20:54:52.640625,210.66
2019-08-06 20:54:52.656250,232.22
2019-08-06 20:54:52.671875,251.08
