2019-08-13 14:16:49.000000,-0.0
2019-08-13 14:16:49.015625,-0.0
2019-08-13 14:16:49.031250,-0.0
2019-08-13 14:16:49.046875,-0.0
2019-08-13 14:16:49.062500,-0.0
2019-08-13 14:16:49.078125,-0.0
2019-08-13 14:16:49.093750,-0.0
2019-08-13 14:16:49.109375,-0.0
2019-08-13 14:16:49.125000,-0.0
2019-08-13 14:16:49.140625,-0.0
2019-08-13 14:16:49.156250,0.0
2019-08-13 14:16:49.171875,0.01
2019-08-13 14:16:49.187500,0.01
2019-08-13 14:16:49.203125,-0.0
2019-08-13 14:16:49.218750,-0.03
2019-08-13 14:16:49.234375,-0.05
2019-08-13 14:16:49.250000,-0.05
2019-08-13 14:16:49.265625,0.0
2019-08-13 14:16:49.281250,0.13
2019-08-13 14:16:49.296875,0.36
2019-08-13 14:16:49.312500,0.66
2019-08-13 14:16:49.328125,1.01
2019-08-13 14:16:49.343750,1.37
2019-08-13 14:16:49.359375,1.72
2019-08-13 14:16:49.375000,2.06
2019-08-13 14:16:49.390625,2.4
2019-08-13 14:16:49.406250,2.79
2019-08-13 14:16:49.421875,3.24
2019-08-13 14:16:49.437500,3.8
2019-08-13 14:16:49.453125,4.42
2019-08-13 14:16:49.468750,5.07
2019-08-13 14:16:49.484375,5.68
2019-08-13 14:16:49.500000,6.23
2019-08-13 14:16:49.515625,6.74
2019-08-13 14:16:49.531250,7.26
2019-08-13 14:16:49.546875,7.86
2019-08-13 14:16:49.562500,8.61
2019-08-13 14:16:49.578125,9.6
2019-08-13 14:16:49.593750,10.75
2019-08-13 14:16:49.609375,11.95
2019-08-13 14:16:49.625000,13.09
2019-08-13 14:16:49.640625,14.11
2019-08-13 14:16:49.656250,15.07
2019-08-13 14:16:49.671875,16.11
2019-08-13 14:16:49.687500,17.46
2019-08-13 14:16:49.703125,19.26
2019-08-13 14:16:49.718750,21.73
2019-08-13 14:16:49.734375,24.7
2019-08-13 14:16:49.750000,27.88
2019-08-13 14:16:49.765625,30.97
2019-08-13 14:16:49.781250,33.82
2019-08-13 14:16:49.796875,36.49
2019-08-13 14:16:49.812500,39.32
2019-08-13 14:16:49.828125,42.73
2019-08-13 14:16:49.843750,47.07
2019-08-13 14:16:49.859375,52.72
2019-08-13 14:16:49.875000,59.34
2019-08-13 14:16:49.890625,66.4
2019-08-13 14:16:49.906250,73.32
2019-08-13 14:16:49.921875,79.76
2019-08-13 14:16:49.937500,85.78
2019-08-13 14:16:49.953125,91.9
2019-08-13 14:16:49.968750,98.84
2019-08-13 14:16:49.984375,107.16
2019-08-13 14:16:50.000000,117.42
2019-08-13 14:16:50.015625,129.13
2019-08-13 14:16:50.031250,141.5
2019-08-13 14:16:50.046875,153.63
2019-08-13 14:16:50.062500,164.94
2019-08-13 14:16:50.078125,175.49
2019-08-13 14:16:50.093750,185.93
2019-08-13 14:16:50.109375,197.65
2019-08-13 14:16:50.125000,209.39
2019-08-13 14:16:50.140625,223.46
2019-08-13 14:16:50.156250,240.49
2019-08-13 14:16:50.171875,260.55
2019-08-13 14:16:50.187500,282.44
2019-08-13 14:16:50.203125,303.18
2019-08-13 14:16:50.218750,318.46
2019-08-13 14:16:50.234375,323.68
2019-08-13 14:16:50.250000,315.51
2019-08-13 14:16:50.265625,293.14
2019-08-13 14:16:50.281250,259.03
2019-08-13 14:16:50.296875,217.02
2019-08-13 14:16:50.312500,171.43
2019-08-13 14:16:50.328125,125.43
2019-08-13 14:16:50.343750,80.49
2019-08-13 14:16:50.359375,36.86
2019-08-13 14:16:50.375000,-5.57
2019-08-13 14:16:50.390625,-46.5
2019-08-13 14:16:50.406250,-85.07
2019-08-13 14:16:50.421875,-119.85
2019-08-13 14:16:50.437500,-150.14
2019-08-13 14:16:50.453125,-175.59
2019-08-13 14:16:50.468750,-196.2
2019-08-13 14:16:50.484375,-212.26
2019-08-13 14:16:50.500000,-223.77
2019-08-13 14:16:50.515625,-230.46
2019-08-13 14:16:50.531250,-231.94
2019-08-13 14:16:50.546875,-228.17
2019-08-13 14:16:50.562500,-219.44
2019-08-13 14:16:50.578125,-206.98
2019-08-13 14:16:50.593750,-192.3
2019-08-13 14:16:50.609375,-176.97
2019-08-13 14:16:50.625000,-162.18
2019-08-13 14:16:50.640625,-148.53
2019-08-13 14:16:50.656250,-136.06
2019-08-13 14:16:50.671875,-124.49
2019-08-13 14:16:50.687500,-113.56
2019-08-13 14:16:50.703125,-102.73
2019-08-13 14:16:50.718750,-92.07
2019-08-13 14:16:50.734375,-81.88
2019-08-13 14:16:50.750000,-72.59
2019-08-13 14:16:50.765625,-64.53
2019-08-13 14:16:50.781250,-57.74
2019-08-13 14:16:50.796875,-52.01
2019-08-13 14:16:50.812500,-46.97
2019-08-13 14:16:50.828125,-42.3
2019-08-13 14:16:50.843750,-37.72
2019-08-13 14:16:50.859375,-33.29
2019-08-13 14:16:50.875000,-29.15
2019-08-13 14:16:50.890625,-25.51
2019-08-13 14:16:50.906250,-22.53
2019-08-13 14:16:50.921875,-20.2
2019-08-13 14:16:50.937500,-18.44
2019-08-13 14:16:50.953125,-17.06
2019-08-13 14:16:50.968750,-15.89
2019-08-13 14:16:50.984375,-14.8
2019-08-13 14:16:51.000000,-13.78
2019-08-13 14:16:51.015625,-12.87
2019-08-13 14:16:51.031250,-12.12
2019-08-13 14:16:51.046875,-11.57
2019-08-13 14:16:51.062500,-11.21
2019-08-13 14:16:51.078125,-11.03
2019-08-13 14:16:51.093750,-10.97
2019-08-13 14:16:51.109375,-10.98
2019-08-13 14:16:51.125000,-11.02
2019-08-13 14:16:51.140625,-11.08
2019-08-13 14:16:51.156250,-11.16
2019-08-13 14:16:51.171875,-11.3
2019-08-13 14:16:51.187500,-11.56
2019-08-13 14:16:51.203125,-12.0
2019-08-13 14:16:51.218750,-12.69
2019-08-13 14:16:51.234375,-13.68
2019-08-13 14:16:51.250000,-14.96
2019-08-13 14:16:51.265625,-16.43
2019-08-13 14:16:51.281250,-17.99
2019-08-13 14:16:51.296875,-19.53
2019-08-13 14:16:51.312500,-21.0
2019-08-13 14:16:51.328125,-22.39
2019-08-13 14:16:51.343750,-23.81
2019-08-13 14:16:51.359375,-25.39
2019-08-13 14:16:51.375000,-27.23
2019-08-13 14:16:51.390625,-29.37
2019-08-13 14:16:51.406250,-31.72
2019-08-13 14:16:51.421875,-34.14
2019-08-13 14:16:51.437500,-36.47
2019-08-13 14:16:51.453125,-38.62
2019-08-13 14:16:51.468750,-40.68
2019-08-13 14:16:51.484375,-42.84
2019-08-13 14:16:51.500000,-45.38
2019-08-13 14:16:51.515625,-48.55
2019-08-13 14:16:51.531250,-52.42
2019-08-13 14:16:51.546875,-56.87
2019-08-13 14:16:51.562500,-61.61
2019-08-13 14:16:51.578125,-66.28
2019-08-13 14:16:51.593750,-70.68
2019-08-13 14:16:51.609375,-74.85
2019-08-13 14:16:51.625000,-79.13
2019-08-13 14:16:51.640625,-84.09
2019-08-13 14:16:51.656250,-90.23
2019-08-13 14:16:51.671875,-97.9
2019-08-13 14:16:51.687500,-106.95
2019-08-13 14:16:51.703125,-116.85
2019-08-13 14:16:51.718750,-126.8
2019-08-13 14:16:51.734375,-136.06
2019-08-13 14:16:51.750000,-144.33
2019-08-13 14:16:51.765625,-152.04
2019-08-13 14:16:51.781250,-160.36
2019-08-13 14:16:51.796875,-170.86
2019-08-13 14:16:51.812500,-184.76
2019-08-13 14:16:51.828125,-202.13
2019-08-13 14:16:51.843750,-221.34
2019-08-13 14:16:51.859375,-239.27
2019-08-13 14:16:51.875000,-252.16
2019-08-13 14:16:51.890625,-256.89
2019-08-13 14:16:51.906250,-252.06
2019-08-13 14:16:51.921875,-238.37
2019-08-13 14:16:51.937500,-218.21
2019-08-13 14:16:51.953125,-194.73
2019-08-13 14:16:51.968750,-170.91
2019-08-13 14:16:51.984375,-149.01
2019-08-13 14:16:52.000000,-130.48
2019-08-13 14:16:52.015625,-115.98
2019-08-13 14:16:52.031250,-105.41
2019-08-13 14:16:52.046875,-97.74
2019-08-13 14:16:52.062500,-91.18
2019-08-13 14:16:52.078125,-83.63
2019-08-13 14:16:52.093750,-73.62
2019-08-13 14:16:52.109375,-61.17
2019-08-13 14:16:52.125000,-48.03
2019-08-13 14:16:52.140625,-36.93
2019-08-13 14:16:52.156250,-30.11
2019-08-13 14:16:52.171875,-28.12
2019-08-13 14:16:52.187500,-29.39
2019-08-13 14:16:52.203125,-31.04
2019-08-13 14:16:52.218750,-30.46
2019-08-13 14:16:52.234375,-26.8
2019-08-13 14:16:52.250000,-21.38
2019-08-13 14:16:52.265625,-16.84
2019-08-13 14:16:52.281250,-15.54
2019-08-13 14:16:52.296875,-18.13
2019-08-13 14:16:52.312500,-23.23
2019-08-13 14:16:52.328125,-28.3
2019-08-13 14:16:52.343750,-31.2
2019-08-13 14:16:52.359375,-31.55
2019-08-13 14:16:52.375000,-30.86
2019-08-13 14:16:52.390625,-31.55
2019-08-13 14:16:52.406250,-35.35
2019-08-13 14:16:52.421875,-42.2
2019-08-13 14:16:52.437500,-50.23
2019-08-13 14:16:52.453125,-57.12
2019-08-13 14:16:52.468750,-61.57
2019-08-13 14:16:52.484375,-64.22
2019-08-13 14:16:52.500000,-67.32
2019-08-13 14:16:52.515625,-73.11
2019-08-13 14:16:52.531250,-82.2
2019-08-13 14:16:52.546875,-92.65
2019-08-13 14:16:52.562500,-100.83
2019-08-13 14:16:52.578125,-103.36
2019-08-13 14:16:52.593750,-99.4
2019-08-13 14:16:52.609375,-91.34
2019-08-13 14:16:52.625000,-83.86
2019-08-13 14:16:52.640625,-81.5
2019-08-13 14:16:52.656250,-86.23
2019-08-13 14:16:52.671875,-96.27
2019-08-13 14:16:52.687500,-106.99
2019-08-13 14:16:52.703125,-113.12
2019-08-13 14:16:52.718750,-111.09
2019-08-13 14:16:52.734375,-100.59
2019-08-13 14:16:52.750000,-83.97
2019-08-13 14:16:52.765625,-64.57
2019-08-13 14:16:52.781250,-45.07
2019-08-13 14:16:52.796875,-26.45
2019-08-13 14:16:52.812500,-8.23
2019-08-13 14:16:52.828125,10.77
2019-08-13 14:16:52.843750,31.55
2019-08-13 14:16:52.859375,55.74
2019-08-13 14:16:52.875000,84.08
2019-08-13 14:16:52.890625,116.97
2019-08-13 14:16:52.906250,154.63
2019-08-13 14:16:52.921875,196.93
2019-08-13 14:16:52.937500,242.79
2019-08-13 14:16:52.953125,289.81
2019-08-13 14:16:52.968750,333.97
2019-08-13 14:16:52.984375,370.29
2019-08-13 14:16:53.000000,394.27
2019-08-13 14:16:53.015625,402.96
2019-08-13 14:16:53.031250,395.66
2019-08-13 14:16:53.046875,374.56
2019-08-13 14:16:53.062500,344.45
2019-08-13 14:16:53.078125,311.52
2019-08-13 14:16:53.093750,281.44
2019-08-13 14:16:53.109375,257.41
2019-08-13 14:16:53.125000,239.34
2019-08-13 14:16:53.140625,224.06
2019-08-13 14:16:53.156250,206.94
2019-08-13 14:16:53.171875,183.41
2019-08-13 14:16:53.187500,150.13
2019-08-13 14:16:53.203125,105.78
2019-08-13 14:16:53.218750,52.14
2019-08-13 14:16:53.234375,-5.27
2019-08-13 14:16:53.250000,-57.49
2019-08-13 14:16:53.265625,-94.01
2019-08-13 14:16:53.281250,-106.27
2019-08-13 14:16:53.296875,-91.61
2019-08-13 14:16:53.312500,-55.23
2019-08-13 14:16:53.328125,-8.49
2019-08-13 14:16:53.343750,35.72
2019-08-13 14:16:53.359375,69.02
2019-08-13 14:16:53.375000,90.49
2019-08-13 14:16:53.390625,105.92
2019-08-13 14:16:53.406250,123.03
2019-08-13 14:16:53.421875,147.47
2019-08-13 14:16:53.437500,179.91
2019-08-13 14:16:53.453125,216.38
2019-08-13 14:16:53.468750,251.35
2019-08-13 14:16:53.484375,280.89
2019-08-13 14:16:53.500000,304.61
2019-08-13 14:16:53.515625,324.43
2019-08-13 14:16:53.531250,341.59
2019-08-13 14:16:53.546875,354.92
2019-08-13 14:16:53.562500,360.82
2019-08-13 14:16:53.578125,354.69
2019-08-13 14:16:53.593750,332.8
2019-08-13 14:16:53.609375,296.0
2019-08-13 14:16:53.625000,245.6
2019-08-13 14:16:53.640625,185.0
2019-08-13 14:16:53.656250,119.61
2019-08-13 14:16:53.671875,56.01
2019-08-13 14:16:53.687500,0.61
2019-08-13 14:16:53.703125,-42.07
2019-08-13 14:16:53.718750,-69.8
2019-08-13 14:16:53.734375,-83.92
2019-08-13 14:16:53.750000,-89.35
2019-08-13 14:16:53.765625,-92.71
2019-08-13 14:16:53.781250,-98.76
2019-08-13 14:16:53.796875,-108.84
2019-08-13 14:16:53.812500,-121.25
2019-08-13 14:16:53.828125,-133.25
2019-08-13 14:16:53.843750,-143.07
2019-08-13 14:16:53.859375,-150.86
2019-08-13 14:16:53.875000,-158.12
2019-08-13 14:16:53.890625,-166.06
2019-08-13 14:16:53.906250,-174.66
2019-08-13 14:16:53.921875,-182.21
2019-08-13 14:16:53.937500,-186.65
2019-08-13 14:16:53.953125,-187.08
2019-08-13 14:16:53.968750,-184.45
2019-08-13 14:16:53.984375,-181.06
2019-08-13 14:16:54.000000,-179.72
2019-08-13 14:16:54.015625,-182.39
2019-08-13 14:16:54.031250,-189.44
2019-08-13 14:16:54.046875,-199.98
2019-08-13 14:16:54.062500,-212.11
2019-08-13 14:16:54.078125,-224.0
2019-08-13 14:16:54.093750,-234.75
2019-08-13 14:16:54.109375,-244.62
2019-08-13 14:16:54.125000,-254.68
2019-08-13 14:16:54.140625,-266.16
2019-08-13 14:16:54.156250,-279.7
2019-08-13 14:16:54.171875,-294.94
2019-08-13 14:16:54.187500,-310.77
2019-08-13 14:16:54.203125,-325.52
2019-08-13 14:16:54.218750,-337.51
2019-08-13 14:16:54.234375,-345.58
2019-08-13 14:16:54.250000,-349.23
2019-08-13 14:16:54.265625,-348.46
2019-08-13 14:16:54.281250,-343.5
2019-08-13 14:16:54.296875,-335.5
2019-08-13 14:16:54.312500,-324.29
2019-08-13 14:16:54.328125,-309.28
2019-08-13 14:16:54.343750,-289.59
2019-08-13 14:16:54.359375,-264.4
2019-08-13 14:16:54.375000,-233.19
2019-08-13 14:16:54.390625,-195.8
2019-08-13 14:16:54.406250,-152.45
2019-08-13 14:16:54.421875,-103.55
2019-08-13 14:16:54.437500,-49.76
2019-08-13 14:16:54.453125,8.22
2019-08-13 14:16:54.468750,69.29
2019-08-13 14:16:54.484375,131.88
2019-08-13 14:16:54.500000,194.0
2019-08-13 14:16:54.515625,253.25
2019-08-13 14:16:54.531250,306.95
2019-08-13 14:16:54.546875,352.34
2019-08-13 14:16:54.562500,386.9
2019-08-13 14:16:54.578125,408.57
2019-08-13 14:16:54.593750,416.08
2019-08-13 14:16:54.609375,408.91
2019-08-13 14:16:54.625000,387.48
2019-08-13 14:16:54.640625,353.1
2019-08-13 14:16:54.656250,307.97
2019-08-13 14:16:54.671875,254.91
2019-08-13 14:16:54.687500,197.18
2019-08-13 14:16:54.703125,138.14
2019-08-13 14:16:54.718750,80.95
2019-08-13 14:16:54.734375,28.34
2019-08-13 14:16:54.750000,-17.57
2019-08-13 14:16:54.765625,-55.27
2019-08-13 14:16:54.781250,-83.87
2019-08-13 14:16:54.796875,-102.94
2019-08-13 14:16:54.812500,-112.57
2019-08-13 14:16:54.828125,-113.36
2019-08-13 14:16:54.843750,-106.29
2019-08-13 14:16:54.859375,-92.74
2019-08-13 14:16:54.875000,-74.37
2019-08-13 14:16:54.890625,-52.88
2019-08-13 14:16:54.906250,-29.82
2019-08-13 14:16:54.921875,-6.3
2019-08-13 14:16:54.937500,17.16
2019-08-13 14:16:54.953125,40.49
2019-08-13 14:16:54.968750,63.13
2019-08-13 14:16:54.984375,84.8
2019-08-13 14:16:55.000000,105.06
2019-08-13 14:16:55.015625,123.21
2019-08-13 14:16:55.031250,138.37
2019-08-13 14:16:55.046875,149.87
2019-08-13 14:16:55.062500,157.57
2019-08-13 14:16:55.078125,162.49
2019-08-13 14:16:55.093750,166.73
2019-08-13 14:16:55.109375,173.14
2019-08-13 14:16:55.125000,184.25
2019-08-13 14:16:55.140625,200.9
2019-08-13 14:16:55.156250,221.43
2019-08-13 14:16:55.171875,241.87
2019-08-13 14:16:55.187500,257.32
2019-08-13 14:16:55.203125,263.58
2019-08-13 14:16:55.218750,258.6
2019-08-13 14:16:55.234375,242.65
2019-08-13 14:16:55.250000,217.79
2019-08-13 14:16:55.265625,186.94
2019-08-13 14:16:55.281250,153.22
2019-08-13 14:16:55.296875,119.95
2019-08-13 14:16:55.312500,90.61
2019-08-13 14:16:55.328125,68.63
2019-08-13 14:16:55.343750,56.02
2019-08-13 14:16:55.359375,52.4
2019-08-13 14:16:55.375000,54.53
2019-08-13 14:16:55.390625,57.51
2019-08-13 14:16:55.406250,56.94
2019-08-13 14:16:55.421875,50.76
2019-08-13 14:16:55.437500,40.09
2019-08-13 14:16:55.453125,27.97
2019-08-13 14:16:55.468750,17.41
2019-08-13 14:16:55.484375,9.33
2019-08-13 14:16:55.500000,2.45
2019-08-13 14:16:55.515625,-5.64
2019-08-13 14:16:55.531250,-16.37
2019-08-13 14:16:55.546875,-28.74
2019-08-13 14:16:55.562500,-39.55
2019-08-13 14:16:55.578125,-44.85
2019-08-13 14:16:55.593750,-42.46
2019-08-13 14:16:55.609375,-33.15
2019-08-13 14:16:55.625000,-20.87
2019-08-13 14:16:55.640625,-10.74
2019-08-13 14:16:55.656250,-6.74
2019-08-13 14:16:55.671875,-9.82
2019-08-13 14:16:55.687500,-17.38
2019-08-13 14:16:55.703125,-25.1
2019-08-13 14:16:55.718750,-29.12
2019-08-13 14:16:55.734375,-28.48
2019-08-13 14:16:55.750000,-25.29
2019-08-13 14:16:55.765625,-23.57
2019-08-13 14:16:55.781250,-26.36
2019-08-13 14:16:55.796875,-33.59
2019-08-13 14:16:55.812500,-41.7
2019-08-13 14:16:55.828125,-45.14
2019-08-13 14:16:55.843750,-39.59
2019-08-13 14:16:55.859375,-24.29
2019-08-13 14:16:55.875000,-2.97
2019-08-13 14:16:55.890625,17.97
2019-08-13 14:16:55.906250,32.52
2019-08-13 14:16:55.921875,37.99
2019-08-13 14:16:55.937500,35.96
2019-08-13 14:16:55.953125,30.76
2019-08-13 14:16:55.968750,26.91
2019-08-13 14:16:55.984375,26.28
2019-08-13 14:16:56.000000,27.64
2019-08-13 14:16:56.015625,27.92
2019-08-13 14:16:56.031250,24.81
2019-08-13 14:16:56.046875,18.71
2019-08-13 14:16:56.062500,12.83
2019-08-13 14:16:56.078125,11.21
2019-08-13 14:16:56.093750,15.99
2019-08-13 14:16:56.109375,25.54
2019-08-13 14:16:56.125000,35.01
2019-08-13 14:16:56.140625,38.86
2019-08-13 14:16:56.156250,34.21
2019-08-13 14:16:56.171875,22.89
2019-08-13 14:16:56.187500,10.85
2019-08-13 14:16:56.203125,4.92
2019-08-13 14:16:56.218750,9.15
2019-08-13 14:16:56.234375,22.31
2019-08-13 14:16:56.250000,38.95
2019-08-13 14:16:56.265625,52.5
2019-08-13 14:16:56.281250,59.5
2019-08-13 14:16:56.296875,61.82
2019-08-13 14:16:56.312500,65.51
2019-08-13 14:16:56.328125,76.49
2019-08-13 14:16:56.343750,95.67
2019-08-13 14:16:56.359375,116.68
2019-08-13 14:16:56.375000,128.01
2019-08-13 14:16:56.390625,118.79
2019-08-13 14:16:56.406250,84.84
2019-08-13 14:16:56.421875,31.56
2019-08-13 14:16:56.437500,-28.45
2019-08-13 14:16:56.453125,-81.8
2019-08-13 14:16:56.468750,-120.79
2019-08-13 14:16:56.484375,-146.73
2019-08-13 14:16:56.500000,-167.75
2019-08-13 14:16:56.515625,-193.63
2019-08-13 14:16:56.531250,-230.06
2019-08-13 14:16:56.546875,-275.85
2019-08-13 14:16:56.562500,-324.18
2019-08-13 14:16:56.578125,-366.9
2019-08-13 14:16:56.593750,-398.56
2019-08-13 14:16:56.609375,-418.38
2019-08-13 14:16:56.625000,-429.43
2019-08-13 14:16:56.640625,-435.34
2019-08-13 14:16:56.656250,-437.61
2019-08-13 14:16:56.671875,-434.76
2019-08-13 14:16:56.687500,-423.2
2019-08-13 14:16:56.703125,-399.4
2019-08-13 14:16:56.718750,-361.98
2019-08-13 14:16:56.734375,-312.96
2019-08-13 14:16:56.750000,-257.32
2019-08-13 14:16:56.765625,-201.35
2019-08-13 14:16:56.781250,-150.49
2019-08-13 14:16:56.796875,-107.62
2019-08-13 14:16:56.812500,-72.33
2019-08-13 14:16:56.828125,-41.61
2019-08-13 14:16:56.843750,-11.51
2019-08-13 14:16:56.859375,20.99
2019-08-13 14:16:56.875000,57.15
2019-08-13 14:16:56.890625,96.58
2019-08-13 14:16:56.906250,138.07
2019-08-13 14:16:56.921875,180.22
2019-08-13 14:16:56.937500,221.11
2019-08-13 14:16:56.953125,257.59
2019-08-13 14:16:56.968750,284.9
2019-08-13 14:16:56.984375,297.74
2019-08-13 14:16:57.000000,292.45
2019-08-13 14:16:57.015625,269.48
2019-08-13 14:16:57.031250,234.45
2019-08-13 14:16:57.046875,196.51
2019-08-13 14:16:57.062500,164.81
2019-08-13 14:16:57.078125,144.68
2019-08-13 14:16:57.093750,135.98
2019-08-13 14:16:57.109375,134.42
2019-08-13 14:16:57.125000,134.99
2019-08-13 14:16:57.140625,134.98
2019-08-13 14:16:57.156250,134.96
2019-08-13 14:16:57.171875,136.93
2019-08-13 14:16:57.187500,141.51
2019-08-13 14:16:57.203125,146.19
2019-08-13 14:16:57.218750,146.0
2019-08-13 14:16:57.234375,136.24
2019-08-13 14:16:57.250000,115.39
2019-08-13 14:16:57.265625,86.43
2019-08-13 14:16:57.281250,55.7
2019-08-13 14:16:57.296875,29.92
2019-08-13 14:16:57.312500,13.34
2019-08-13 14:16:57.328125,6.12
2019-08-13 14:16:57.343750,5.12
2019-08-13 14:16:57.359375,5.88
2019-08-13 14:16:57.375000,5.05
2019-08-13 14:16:57.390625,1.94
2019-08-13 14:16:57.406250,-1.52
2019-08-13 14:16:57.421875,-2.02
2019-08-13 14:16:57.437500,3.2
2019-08-13 14:16:57.453125,14.62
2019-08-13 14:16:57.468750,29.62
2019-08-13 14:16:57.484375,43.19
2019-08-13 14:16:57.500000,49.66
2019-08-13 14:16:57.515625,45.08
2019-08-13 14:16:57.531250,29.02
2019-08-13 14:16:57.546875,4.88
2019-08-13 14:16:57.562500,-21.32
2019-08-13 14:16:57.578125,-43.16
2019-08-13 14:16:57.593750,-56.18
2019-08-13 14:16:57.609375,-58.92
2019-08-13 14:16:57.625000,-52.97
2019-08-13 14:16:57.640625,-41.69
2019-08-13 14:16:57.656250,-28.63
2019-08-13 14:16:57.671875,-16.48
2019-08-13 14:16:57.687500,-6.55
2019-08-13 14:16:57.703125,1.06
2019-08-13 14:16:57.718750,6.97
2019-08-13 14:16:57.734375,12.0
2019-08-13 14:16:57.750000,16.55
2019-08-13 14:16:57.765625,20.3
2019-08-13 14:16:57.781250,22.13
2019-08-13 14:16:57.796875,20.46
2019-08-13 14:16:57.812500,14.08
2019-08-13 14:16:57.828125,3.07
2019-08-13 14:16:57.843750,-10.88
2019-08-13 14:16:57.859375,-24.72
2019-08-13 14:16:57.875000,-35.34
2019-08-13 14:16:57.890625,-40.69
2019-08-13 14:16:57.906250,-40.34
2019-08-13 14:16:57.921875,-35.37
2019-08-13 14:16:57.937500,-27.45
2019-08-13 14:16:57.953125,-17.95
2019-08-13 14:16:57.968750,-7.84
2019-08-13 14:16:57.984375,2.05
2019-08-13 14:16:58.000000,10.47
2019-08-13 14:16:58.015625,15.8
2019-08-13 14:16:58.031250,16.65
2019-08-13 14:16:58.046875,12.69
2019-08-13 14:16:58.062500,5.08
2019-08-13 14:16:58.078125,-3.66
2019-08-13 14:16:58.093750,-10.74
2019-08-13 14:16:58.109375,-14.2
2019-08-13 14:16:58.125000,-13.86
2019-08-13 14:16:58.140625,-11.33
2019-08-13 14:16:58.156250,-9.39
2019-08-13 14:16:58.171875,-10.46
2019-08-13 14:16:58.187500,-15.34
2019-08-13 14:16:58.203125,-22.45
2019-08-13 14:16:58.218750,-28.47
2019-08-13 14:16:58.234375,-29.86
2019-08-13 14:16:58.250000,-24.99
2019-08-13 14:16:58.265625,-15.0
2019-08-13 14:16:58.281250,-3.38
2019-08-13 14:16:58.296875,5.93
2019-08-13 14:16:58.312500,10.73
2019-08-13 14:16:58.328125,11.43
2019-08-13 14:16:58.343750,10.27
2019-08-13 14:16:58.359375,9.32
2019-08-13 14:16:58.375000,8.67
2019-08-13 14:16:58.390625,6.31
2019-08-13 14:16:58.406250,-0.11
2019-08-13 14:16:58.421875,-10.96
2019-08-13 14:16:58.437500,-23.43
2019-08-13 14:16:58.453125,-32.33
2019-08-13 14:16:58.468750,-32.92
2019-08-13 14:16:58.484375,-23.68
2019-08-13 14:16:58.500000,-7.53
2019-08-13 14:16:58.515625,9.47
2019-08-13 14:16:58.531250,21.23
2019-08-13 14:16:58.546875,24.68
2019-08-13 14:16:58.562500,20.89
2019-08-13 14:16:58.578125,14.14
2019-08-13 14:16:58.593750,8.97
2019-08-13 14:16:58.609375,7.62
2019-08-13 14:16:58.625000,8.92
2019-08-13 14:16:58.640625,9.37
2019-08-13 14:16:58.656250,5.63
2019-08-13 14:16:58.671875,-3.13
2019-08-13 14:16:58.687500,-14.45
2019-08-13 14:16:58.703125,-23.85
2019-08-13 14:16:58.718750,-27.35
2019-08-13 14:16:58.734375,-23.63
2019-08-13 14:16:58.750000,-14.89
2019-08-13 14:16:58.765625,-5.45
2019-08-13 14:16:58.781250,0.53
2019-08-13 14:16:58.796875,1.42
2019-08-13 14:16:58.812500,-1.13
2019-08-13 14:16:58.828125,-3.28
2019-08-13 14:16:58.843750,-1.38
2019-08-13 14:16:58.859375,5.77
2019-08-13 14:16:58.875000,15.93
2019-08-13 14:16:58.890625,24.33
2019-08-13 14:16:58.906250,26.32
2019-08-13 14:16:58.921875,19.9
2019-08-13 14:16:58.937500,7.02
2019-08-13 14:16:58.953125,-7.3
2019-08-13 14:16:58.968750,-17.51
2019-08-13 14:16:58.984375,-20.48
2019-08-13 14:16:59.000000,-17.11
2019-08-13 14:16:59.015625,-11.47
2019-08-13 14:16:59.031250,-8.33
2019-08-13 14:16:59.046875,-10.14
2019-08-13 14:16:59.062500,-15.65
2019-08-13 14:16:59.078125,-20.71
2019-08-13 14:16:59.093750,-21.06
2019-08-13 14:16:59.109375,-14.88
2019-08-13 14:16:59.125000,-4.08
2019-08-13 14:16:59.140625,6.78
2019-08-13 14:16:59.156250,13.07
2019-08-13 14:16:59.171875,12.57
2019-08-13 14:16:59.187500,6.44
2019-08-13 14:16:59.203125,-1.68
2019-08-13 14:16:59.218750,-7.91
2019-08-13 14:16:59.234375,-10.23
2019-08-13 14:16:59.250000,-9.4
2019-08-13 14:16:59.265625,-8.11
2019-08-13 14:16:59.281250,-9.2
2019-08-13 14:16:59.296875,-13.68
2019-08-13 14:16:59.312500,-20.06
2019-08-13 14:16:59.328125,-24.93
2019-08-13 14:16:59.343750,-24.94
2019-08-13 14:16:59.359375,-18.68
2019-08-13 14:16:59.375000,-7.63
2019-08-13 14:16:59.390625,4.41
2019-08-13 14:16:59.406250,13.4
2019-08-13 14:16:59.421875,17.18
2019-08-13 14:16:59.437500,16.5
2019-08-13 14:16:59.453125,14.22
2019-08-13 14:16:59.468750,13.18
2019-08-13 14:16:59.484375,14.29
2019-08-13 14:16:59.500000,15.74
2019-08-13 14:16:59.515625,14.41
2019-08-13 14:16:59.531250,8.01
2019-08-13 14:16:59.546875,-2.9
2019-08-13 14:16:59.562500,-14.65
2019-08-13 14:16:59.578125,-22.23
2019-08-13 14:16:59.593750,-21.99
2019-08-13 14:16:59.609375,-13.65
2019-08-13 14:16:59.625000,-0.45
2019-08-13 14:16:59.640625,12.56
2019-08-13 14:16:59.656250,21.15
2019-08-13 14:16:59.671875,23.77
2019-08-13 14:16:59.687500,21.91
2019-08-13 14:16:59.703125,18.69
2019-08-13 14:16:59.718750,16.69
2019-08-13 14:16:59.734375,16.48
2019-08-13 14:16:59.750000,16.35
2019-08-13 14:16:59.765625,13.63
2019-08-13 14:16:59.781250,6.47
2019-08-13 14:16:59.796875,-4.65
2019-08-13 14:16:59.812500,-16.73
2019-08-13 14:16:59.828125,-25.56
2019-08-13 14:16:59.843750,-27.79
2019-08-13 14:16:59.859375,-22.92
2019-08-13 14:16:59.875000,-13.66
2019-08-13 14:16:59.890625,-4.74
2019-08-13 14:16:59.906250,-0.36
2019-08-13 14:16:59.921875,-1.86
2019-08-13 14:16:59.937500,-6.88
2019-08-13 14:16:59.953125,-10.69
2019-08-13 14:16:59.968750,-9.07
2019-08-13 14:16:59.984375,-0.94
2019-08-13 14:17:00.000000,10.67
2019-08-13 14:17:00.015625,20.26
2019-08-13 14:17:00.031250,22.92
2019-08-13 14:17:00.046875,17.16
2019-08-13 14:17:00.062500,5.86
2019-08-13 14:17:00.078125,-5.27
2019-08-13 14:17:00.093750,-10.92
2019-08-13 14:17:00.109375,-9.08
2019-08-13 14:17:00.125000,-2.01
2019-08-13 14:17:00.140625,5.27
2019-08-13 14:17:00.156250,8.08
2019-08-13 14:17:00.171875,4.78
2019-08-13 14:17:00.187500,-2.43
2019-08-13 14:17:00.203125,-8.97
2019-08-13 14:17:00.218750,-10.85
2019-08-13 14:17:00.234375,-6.97
2019-08-13 14:17:00.250000,0.33
2019-08-13 14:17:00.265625,6.82
2019-08-13 14:17:00.281250,9.12
2019-08-13 14:17:00.296875,6.61
2019-08-13 14:17:00.312500,1.66
2019-08-13 14:17:00.328125,-2.03
2019-08-13 14:17:00.343750,-1.8
2019-08-13 14:17:00.359375,2.32
2019-08-13 14:17:00.375000,7.76
2019-08-13 14:17:00.390625,10.83
2019-08-13 14:17:00.406250,9.01
2019-08-13 14:17:00.421875,2.34
2019-08-13 14:17:00.437500,-6.57
2019-08-13 14:17:00.453125,-13.88
2019-08-13 14:17:00.468750,-16.58
2019-08-13 14:17:00.484375,-13.97
2019-08-13 14:17:00.500000,-8.15
2019-08-13 14:17:00.515625,-2.82
2019-08-13 14:17:00.531250,-1.26
2019-08-13 14:17:00.546875,-4.41
2019-08-13 14:17:00.562500,-10.19
2019-08-13 14:17:00.578125,-14.62
2019-08-13 14:17:00.593750,-14.11
2019-08-13 14:17:00.609375,-7.79
2019-08-13 14:17:00.625000,1.67
2019-08-13 14:17:00.640625,9.46
2019-08-13 14:17:00.656250,11.35
2019-08-13 14:17:00.671875,6.27
2019-08-13 14:17:00.687500,-2.83
2019-08-13 14:17:00.703125,-10.66
2019-08-13 14:17:00.718750,-12.57
2019-08-13 14:17:00.734375,-7.25
2019-08-13 14:17:00.750000,2.54
2019-08-13 14:17:00.765625,11.54
2019-08-13 14:17:00.781250,15.04
2019-08-13 14:17:00.796875,11.61
2019-08-13 14:17:00.812500,3.72
2019-08-13 14:17:00.828125,-3.77
2019-08-13 14:17:00.843750,-6.51
2019-08-13 14:17:00.859375,-3.18
2019-08-13 14:17:00.875000,3.85
2019-08-13 14:17:00.890625,9.88
2019-08-13 14:17:00.906250,10.71
2019-08-13 14:17:00.921875,5.19
2019-08-13 14:17:00.937500,-3.99
2019-08-13 14:17:00.953125,-11.79
2019-08-13 14:17:00.968750,-13.73
2019-08-13 14:17:00.984375,-8.65
2019-08-13 14:17:01.000000,0.39
2019-08-13 14:17:01.015625,7.77
2019-08-13 14:17:01.031250,8.63
2019-08-13 14:17:01.046875,1.77
2019-08-13 14:17:01.062500,-9.33
2019-08-13 14:17:01.078125,-18.37
2019-08-13 14:17:01.093750,-19.8
2019-08-13 14:17:01.109375,-11.95
2019-08-13 14:17:01.125000,1.85
2019-08-13 14:17:01.140625,15.15
2019-08-13 14:17:01.156250,21.89
2019-08-13 14:17:01.171875,19.63
2019-08-13 14:17:01.187500,10.81
2019-08-13 14:17:01.203125,1.01
2019-08-13 14:17:01.218750,-4.31
2019-08-13 14:17:01.234375,-2.99
2019-08-13 14:17:01.250000,2.83
2019-08-13 14:17:01.265625,8.01
2019-08-13 14:17:01.281250,7.67
2019-08-13 14:17:01.296875,0.1
2019-08-13 14:17:01.312500,-12.07
2019-08-13 14:17:01.328125,-23.26
2019-08-13 14:17:01.343750,-28.04
2019-08-13 14:17:01.359375,-24.27
2019-08-13 14:17:01.375000,-14.32
2019-08-13 14:17:01.390625,-3.84
2019-08-13 14:17:01.406250,1.52
2019-08-13 14:17:01.421875,-0.65
2019-08-13 14:17:01.437500,-8.0
2019-08-13 14:17:01.453125,-14.85
2019-08-13 14:17:01.468750,-15.4
2019-08-13 14:17:01.484375,-7.29
2019-08-13 14:17:01.500000,6.86
2019-08-13 14:17:01.515625,20.79
2019-08-13 14:17:01.531250,28.05
2019-08-13 14:17:01.546875,25.58
2019-08-13 14:17:01.562500,15.29
2019-08-13 14:17:01.578125,2.87
2019-08-13 14:17:01.593750,-5.55
2019-08-13 14:17:01.609375,-6.9
2019-08-13 14:17:01.625000,-2.52
2019-08-13 14:17:01.640625,2.95
2019-08-13 14:17:01.656250,4.76
2019-08-13 14:17:01.671875,0.96
2019-08-13 14:17:01.687500,-6.41
2019-08-13 14:17:01.703125,-12.66
2019-08-13 14:17:01.718750,-13.41
2019-08-13 14:17:01.734375,-7.23
2019-08-13 14:17:01.750000,3.53
2019-08-13 14:17:01.765625,13.95
2019-08-13 14:17:01.781250,19.35
2019-08-13 14:17:01.796875,17.73
2019-08-13 14:17:01.812500,10.58
2019-08-13 14:17:01.828125,1.88
2019-08-13 14:17:01.843750,-4.22
2019-08-13 14:17:01.859375,-5.59
2019-08-13 14:17:01.875000,-2.76
2019-08-13 14:17:01.890625,1.68
2019-08-13 14:17:01.906250,5.04
2019-08-13 14:17:01.921875,6.1
2019-08-13 14:17:01.937500,5.6
2019-08-13 14:17:01.953125,5.47
2019-08-13 14:17:01.968750,7.26
2019-08-13 14:17:01.984375,11.08
2019-08-13 14:17:02.000000,15.15
2019-08-13 14:17:02.015625,16.82
2019-08-13 14:17:02.031250,13.93
2019-08-13 14:17:02.046875,6.16
2019-08-13 14:17:02.062500,-4.54
2019-08-13 14:17:02.078125,-14.62
2019-08-13 14:17:02.093750,-20.43
2019-08-13 14:17:02.109375,-19.93
2019-08-13 14:17:02.125000,-13.61
2019-08-13 14:17:02.140625,-4.57
2019-08-13 14:17:02.156250,3.03
2019-08-13 14:17:02.171875,5.87
2019-08-13 14:17:02.187500,3.31
2019-08-13 14:17:02.203125,-2.38
2019-08-13 14:17:02.218750,-7.23
2019-08-13 14:17:02.234375,-7.97
2019-08-13 14:17:02.250000,-4.06
2019-08-13 14:17:02.265625,1.74
2019-08-13 14:17:02.281250,5.06
2019-08-13 14:17:02.296875,2.68
2019-08-13 14:17:02.312500,-5.09
2019-08-13 14:17:02.328125,-14.2
2019-08-13 14:17:02.343750,-19.02
2019-08-13 14:17:02.359375,-15.72
2019-08-13 14:17:02.375000,-4.81
2019-08-13 14:17:02.390625,8.73
2019-08-13 14:17:02.406250,18.1
2019-08-13 14:17:02.421875,18.52
2019-08-13 14:17:02.437500,10.05
2019-08-13 14:17:02.453125,-2.61
2019-08-13 14:17:02.468750,-12.86
2019-08-13 14:17:02.484375,-15.97
2019-08-13 14:17:02.500000,-11.62
2019-08-13 14:17:02.515625,-3.52
2019-08-13 14:17:02.531250,3.11
2019-08-13 14:17:02.546875,4.86
2019-08-13 14:17:02.562500,1.83
2019-08-13 14:17:02.578125,-2.91
2019-08-13 14:17:02.593750,-5.63
2019-08-13 14:17:02.609375,-4.46
2019-08-13 14:17:02.625000,-0.41
2019-08-13 14:17:02.640625,3.41
2019-08-13 14:17:02.656250,3.86
2019-08-13 14:17:02.671875,-0.26
2019-08-13 14:17:02.687500,-7.39
2019-08-13 14:17:02.703125,-13.89
2019-08-13 14:17:02.718750,-16.04
2019-08-13 14:17:02.734375,-11.94
2019-08-13 14:17:02.750000,-2.63
2019-08-13 14:17:02.765625,8.11
2019-08-13 14:17:02.781250,15.5
2019-08-13 14:17:02.796875,16.06
2019-08-13 14:17:02.812500,9.55
2019-08-13 14:17:02.828125,-0.79
2019-08-13 14:17:02.843750,-9.77
2019-08-13 14:17:02.859375,-13.03
2019-08-13 14:17:02.875000,-9.34
2019-08-13 14:17:02.890625,-1.14
2019-08-13 14:17:02.906250,7.13
2019-08-13 14:17:02.921875,11.8
2019-08-13 14:17:02.937500,12.11
2019-08-13 14:17:02.953125,10.24
2019-08-13 14:17:02.968750,9.32
2019-08-13 14:17:02.984375,10.81
2019-08-13 14:17:03.000000,13.21
2019-08-13 14:17:03.015625,12.93
2019-08-13 14:17:03.031250,6.93
2019-08-13 14:17:03.046875,-4.7
2019-08-13 14:17:03.062500,-18.21
2019-08-13 14:17:03.078125,-27.95
2019-08-13 14:17:03.093750,-29.43
2019-08-13 14:17:03.109375,-21.99
2019-08-13 14:17:03.125000,-8.93
2019-08-13 14:17:03.140625,4.27
2019-08-13 14:17:03.156250,13.0
2019-08-13 14:17:03.171875,15.73
2019-08-13 14:17:03.187500,14.2
2019-08-13 14:17:03.203125,11.9
2019-08-13 14:17:03.218750,11.69
2019-08-13 14:17:03.234375,14.25
2019-08-13 14:17:03.250000,17.9
2019-08-13 14:17:03.265625,19.68
2019-08-13 14:17:03.281250,17.05
2019-08-13 14:17:03.296875,9.3
2019-08-13 14:17:03.312500,-1.92
2019-08-13 14:17:03.328125,-13.17
2019-08-13 14:17:03.343750,-20.43
2019-08-13 14:17:03.359375,-20.83
2019-08-13 14:17:03.375000,-13.9
2019-08-13 14:17:03.390625,-2.12
2019-08-13 14:17:03.406250,9.96
2019-08-13 14:17:03.421875,17.54
2019-08-13 14:17:03.437500,17.81
2019-08-13 14:17:03.453125,11.31
2019-08-13 14:17:03.468750,1.54
2019-08-13 14:17:03.484375,-7.06
2019-08-13 14:17:03.500000,-11.48
2019-08-13 14:17:03.515625,-11.76
2019-08-13 14:17:03.531250,-10.51
2019-08-13 14:17:03.546875,-10.7
2019-08-13 14:17:03.562500,-13.44
2019-08-13 14:17:03.578125,-17.02
2019-08-13 14:17:03.593750,-18.12
2019-08-13 14:17:03.609375,-14.31
2019-08-13 14:17:03.625000,-6.15
2019-08-13 14:17:03.640625,2.69
2019-08-13 14:17:03.656250,7.33
2019-08-13 14:17:03.671875,4.84
2019-08-13 14:17:03.687500,-3.91
2019-08-13 14:17:03.703125,-14.3
2019-08-13 14:17:03.718750,-20.7
2019-08-13 14:17:03.734375,-19.6
2019-08-13 14:17:03.750000,-11.67
2019-08-13 14:17:03.765625,-1.32
2019-08-13 14:17:03.781250,5.96
2019-08-13 14:17:03.796875,6.77
2019-08-13 14:17:03.812500,1.73
2019-08-13 14:17:03.828125,-5.11
2019-08-13 14:17:03.843750,-8.84
2019-08-13 14:17:03.859375,-6.69
2019-08-13 14:17:03.875000,0.28
2019-08-13 14:17:03.890625,7.72
2019-08-13 14:17:03.906250,10.44
2019-08-13 14:17:03.921875,5.26
2019-08-13 14:17:03.937500,-7.37
2019-08-13 14:17:03.953125,-23.58
2019-08-13 14:17:03.968750,-37.94
2019-08-13 14:17:03.984375,-45.99
2019-08-13 14:17:04.000000,-45.92
2019-08-13 14:17:04.015625,-38.94
2019-08-13 14:17:04.031250,-28.36
2019-08-13 14:17:04.046875,-17.68
2019-08-13 14:17:04.062500,-9.35
2019-08-13 14:17:04.078125,-4.16
2019-08-13 14:17:04.093750,-2.11
2019-08-13 14:17:04.109375,-3.42
2019-08-13 14:17:04.125000,-9.05
2019-08-13 14:17:04.140625,-19.88
2019-08-13 14:17:04.156250,-35.04
2019-08-13 14:17:04.171875,-50.65
2019-08-13 14:17:04.187500,-60.41
2019-08-13 14:17:04.203125,-58.43
2019-08-13 14:17:04.218750,-43.08
2019-08-13 14:17:04.234375,-19.35
2019-08-13 14:17:04.250000,2.23
2019-08-13 14:17:04.265625,10.23
2019-08-13 14:17:04.281250,-1.72
2019-08-13 14:17:04.296875,-30.94
2019-08-13 14:17:04.312500,-66.25
2019-08-13 14:17:04.328125,-92.7
2019-08-13 14:17:04.343750,-98.15
2019-08-13 14:17:04.359375,-78.04
2019-08-13 14:17:04.375000,-36.34
2019-08-13 14:17:04.390625,17.44
2019-08-13 14:17:04.406250,72.9
2019-08-13 14:17:04.421875,122.64
2019-08-13 14:17:04.437500,163.91
2019-08-13 14:17:04.453125,197.54
2019-08-13 14:17:04.468750,225.73
2019-08-13 14:17:04.484375,250.11
2019-08-13 14:17:04.500000,271.14
2019-08-13 14:17:04.515625,287.97
2019-08-13 14:17:04.531250,299.12
2019-08-13 14:17:04.546875,303.48
2019-08-13 14:17:04.562500,299.35
2019-08-13 14:17:04.578125,285.06
2019-08-13 14:17:04.593750,260.04
2019-08-13 14:17:04.609375,226.56
2019-08-13 14:17:04.625000,190.09
2019-08-13 14:17:04.640625,158.84
2019-08-13 14:17:04.656250,140.29
2019-08-13 14:17:04.671875,137.31
2019-08-13 14:17:04.687500,146.02
2019-08-13 14:17:04.703125,156.76
2019-08-13 14:17:04.718750,158.48
2019-08-13 14:17:04.734375,143.91
2019-08-13 14:17:04.750000,112.28
2019-08-13 14:17:04.765625,68.24
2019-08-13 14:17:04.781250,18.07
2019-08-13 14:17:04.796875,-34.24
2019-08-13 14:17:04.812500,-87.93
2019-08-13 14:17:04.828125,-143.04
2019-08-13 14:17:04.843750,-197.19
2019-08-13 14:17:04.859375,-243.9
2019-08-13 14:17:04.875000,-274.51
2019-08-13 14:17:04.890625,-282.41
2019-08-13 14:17:04.906250,-266.67
2019-08-13 14:17:04.921875,-232.17
2019-08-13 14:17:04.937500,-186.67
2019-08-13 14:17:04.953125,-136.72
2019-08-13 14:17:04.968750,-85.26
2019-08-13 14:17:04.984375,-32.59
2019-08-13 14:17:05.000000,21.0
2019-08-13 14:17:05.015625,72.45
2019-08-13 14:17:05.031250,115.75
2019-08-13 14:17:05.046875,144.42
2019-08-13 14:17:05.062500,154.85
2019-08-13 14:17:05.078125,148.16
2019-08-13 14:17:05.093750,129.69
2019-08-13 14:17:05.109375,106.05
2019-08-13 14:17:05.125000,81.98
2019-08-13 14:17:05.140625,59.02
2019-08-13 14:17:05.156250,35.84
2019-08-13 14:17:05.171875,9.99
2019-08-13 14:17:05.187500,-20.2
2019-08-13 14:17:05.203125,-54.73
2019-08-13 14:17:05.218750,-92.15
2019-08-13 14:17:05.234375,-130.23
2019-08-13 14:17:05.250000,-166.76
2019-08-13 14:17:05.265625,-200.0
2019-08-13 14:17:05.281250,-228.74
2019-08-13 14:17:05.296875,-252.25
2019-08-13 14:17:05.312500,-269.97
2019-08-13 14:17:05.328125,-281.05
2019-08-13 14:17:05.343750,-284.25
2019-08-13 14:17:05.359375,-278.04
2019-08-13 14:17:05.375000,-260.47
2019-08-13 14:17:05.390625,-230.47
2019-08-13 14:17:05.406250,-188.44
2019-08-13 14:17:05.421875,-136.15
2019-08-13 14:17:05.437500,-76.22
2019-08-13 14:17:05.453125,-11.5
2019-08-13 14:17:05.468750,55.38
2019-08-13 14:17:05.484375,121.97
2019-08-13 14:17:05.500000,185.72
2019-08-13 14:17:05.515625,243.17
2019-08-13 14:17:05.531250,291.35
2019-08-13 14:17:05.546875,328.0
2019-08-13 14:17:05.562500,351.97
2019-08-13 14:17:05.578125,363.38
2019-08-13 14:17:05.593750,363.68
2019-08-13 14:17:05.609375,355.22
2019-08-13 14:17:05.625000,340.54
2019-08-13 14:17:05.640625,321.86
2019-08-13 14:17:05.656250,300.98
2019-08-13 14:17:05.671875,278.92
2019-08-13 14:17:05.687500,256.09
2019-08-13 14:17:05.703125,232.64
2019-08-13 14:17:05.718750,208.81
2019-08-13 14:17:05.734375,185.09
2019-08-13 14:17:05.750000,162.1
2019-08-13 14:17:05.765625,140.48
2019-08-13 14:17:05.781250,120.69
2019-08-13 14:17:05.796875,102.91
2019-08-13 14:17:05.812500,87.05
2019-08-13 14:17:05.828125,72.75
2019-08-13 14:17:05.843750,59.63
2019-08-13 14:17:05.859375,47.43
2019-08-13 14:17:05.875000,36.08
2019-08-13 14:17:05.890625,25.73
2019-08-13 14:17:05.906250,16.64
2019-08-13 14:17:05.921875,9.04
2019-08-13 14:17:05.937500,3.11
2019-08-13 14:17:05.953125,-1.14
2019-08-13 14:17:05.968750,-3.88
2019-08-13 14:17:05.984375,-5.44
2019-08-13 14:17:06.000000,-6.23
2019-08-13 14:17:06.015625,-6.63
2019-08-13 14:17:06.031250,-6.93
2019-08-13 14:17:06.046875,-7.34
2019-08-13 14:17:06.062500,-7.92
2019-08-13 14:17:06.078125,-8.69
2019-08-13 14:17:06.093750,-9.62
2019-08-13 14:17:06.109375,-10.71
2019-08-13 14:17:06.125000,-11.99
2019-08-13 14:17:06.140625,-13.45
2019-08-13 14:17:06.156250,-14.98
2019-08-13 14:17:06.171875,-16.44
2019-08-13 14:17:06.187500,-17.59
2019-08-13 14:17:06.203125,-18.25
2019-08-13 14:17:06.218750,-18.3
2019-08-13 14:17:06.234375,-17.82
2019-08-13 14:17:06.250000,-17.15
2019-08-13 14:17:06.265625,-16.73
2019-08-13 14:17:06.281250,-17.1
2019-08-13 14:17:06.296875,-18.6
2019-08-13 14:17:06.312500,-21.22
2019-08-13 14:17:06.328125,-24.65
2019-08-13 14:17:06.343750,-28.28
2019-08-13 14:17:06.359375,-31.54
2019-08-13 14:17:06.375000,-34.16
2019-08-13 14:17:06.390625,-36.34
2019-08-13 14:17:06.406250,-38.74
2019-08-13 14:17:06.421875,-42.21
2019-08-13 14:17:06.437500,-47.4
2019-08-13 14:17:06.453125,-54.46
2019-08-13 14:17:06.468750,-62.93
2019-08-13 14:17:06.484375,-71.88
2019-08-13 14:17:06.500000,-80.38
2019-08-13 14:17:06.515625,-88.02
2019-08-13 14:17:06.531250,-95.08
2019-08-13 14:17:06.546875,-102.52
2019-08-13 14:17:06.562500,-111.38
2019-08-13 14:17:06.578125,-122.23
2019-08-13 14:17:06.593750,-134.72
2019-08-13 14:17:06.609375,-147.54
2019-08-13 14:17:06.625000,-159.03
2019-08-13 14:17:06.640625,-168.01
2019-08-13 14:17:06.656250,-174.42
2019-08-13 14:17:06.671875,-179.62
2019-08-13 14:17:06.687500,-185.57
2019-08-13 14:17:06.703125,-194.28
2019-08-13 14:17:06.718750,-206.67
2019-08-13 14:17:06.734375,-222.63
2019-08-13 14:17:06.750000,-241.43
2019-08-13 14:17:06.765625,-262.31
2019-08-13 14:17:06.781250,-284.56
2019-08-13 14:17:06.796875,-306.88
2019-08-13 14:17:06.812500,-326.76
2019-08-13 14:17:06.828125,-340.52
2019-08-13 14:17:06.843750,-344.53
2019-08-13 14:17:06.859375,-336.9
2019-08-13 14:17:06.875000,-318.96
2019-08-13 14:17:06.890625,-294.88
2019-08-13 14:17:06.906250,-269.52
2019-08-13 14:17:06.921875,-246.07
2019-08-13 14:17:06.937500,-224.62
2019-08-13 14:17:06.953125,-202.59
2019-08-13 14:17:06.968750,-177.17
2019-08-13 14:17:06.984375,-147.76
2019-08-13 14:17:07.000000,-117.2
2019-08-13 14:17:07.015625,-90.85
2019-08-13 14:17:07.031250,-73.71
2019-08-13 14:17:07.046875,-67.63
2019-08-13 14:17:07.062500,-70.06
2019-08-13 14:17:07.078125,-75.16
2019-08-13 14:17:07.093750,-76.48
2019-08-13 14:17:07.109375,-70.04
2019-08-13 14:17:07.125000,-55.77
2019-08-13 14:17:07.140625,-37.18
2019-08-13 14:17:07.156250,-19.05
2019-08-13 14:17:07.171875,-4.84
2019-08-13 14:17:07.187500,5.24
2019-08-13 14:17:07.203125,13.39
2019-08-13 14:17:07.218750,22.57
2019-08-13 14:17:07.234375,33.78
2019-08-13 14:17:07.250000,44.95
2019-08-13 14:17:07.265625,51.56
2019-08-13 14:17:07.281250,49.41
2019-08-13 14:17:07.296875,37.57
2019-08-13 14:17:07.312500,19.82
2019-08-13 14:17:07.328125,3.37
2019-08-13 14:17:07.343750,-4.32
2019-08-13 14:17:07.359375,0.61
2019-08-13 14:17:07.375000,16.49
2019-08-13 14:17:07.390625,36.55
2019-08-13 14:17:07.406250,52.59
2019-08-13 14:17:07.421875,59.08
2019-08-13 14:17:07.437500,55.67
2019-08-13 14:17:07.453125,46.98
2019-08-13 14:17:07.468750,39.46
2019-08-13 14:17:07.484375,37.25
2019-08-13 14:17:07.500000,40.05
2019-08-13 14:17:07.515625,43.32
2019-08-13 14:17:07.531250,41.6
2019-08-13 14:17:07.546875,32.4
2019-08-13 14:17:07.562500,18.35
2019-08-13 14:17:07.578125,6.06
2019-08-13 14:17:07.593750,2.6
2019-08-13 14:17:07.609375,11.16
2019-08-13 14:17:07.625000,28.98
2019-08-13 14:17:07.640625,48.4
2019-08-13 14:17:07.656250,60.68
2019-08-13 14:17:07.671875,60.62
2019-08-13 14:17:07.687500,49.41
2019-08-13 14:17:07.703125,33.67
2019-08-13 14:17:07.718750,21.88
2019-08-13 14:17:07.734375,19.46
2019-08-13 14:17:07.750000,26.0
2019-08-13 14:17:07.765625,35.33
2019-08-13 14:17:07.781250,39.46
2019-08-13 14:17:07.796875,33.42
2019-08-13 14:17:07.812500,18.47
2019-08-13 14:17:07.828125,1.52
2019-08-13 14:17:07.843750,-8.55
2019-08-13 14:17:07.859375,-6.21
2019-08-13 14:17:07.875000,7.76
2019-08-13 14:17:07.890625,26.45
2019-08-13 14:17:07.906250,40.78
2019-08-13 14:17:07.921875,44.64
2019-08-13 14:17:07.937500,37.76
2019-08-13 14:17:07.953125,25.48
2019-08-13 14:17:07.968750,15.24
2019-08-13 14:17:07.984375,12.09
2019-08-13 14:17:08.000000,16.03
2019-08-13 14:17:08.015625,22.43
2019-08-13 14:17:08.031250,25.12
2019-08-13 14:17:08.046875,20.29
2019-08-13 14:17:08.062500,8.93
2019-08-13 14:17:08.078125,-3.66
2019-08-13 14:17:08.093750,-10.77
2019-08-13 14:17:08.109375,-8.1
2019-08-13 14:17:08.125000,3.76
2019-08-13 14:17:08.140625,19.45
2019-08-13 14:17:08.156250,31.47
2019-08-13 14:17:08.171875,34.24
2019-08-13 14:17:08.187500,26.93
2019-08-13 14:17:08.203125,13.79
2019-08-13 14:17:08.218750,1.53
2019-08-13 14:17:08.234375,-4.37
2019-08-13 14:17:08.250000,-2.62
2019-08-13 14:17:08.265625,3.43
2019-08-13 14:17:08.281250,8.02
2019-08-13 14:17:08.296875,6.69
2019-08-13 14:17:08.312500,-1.09
2019-08-13 14:17:08.328125,-11.59
2019-08-13 14:17:08.343750,-19.06
2019-08-13 14:17:08.359375,-19.43
2019-08-13 14:17:08.375000,-12.36
2019-08-13 14:17:08.390625,-1.64
2019-08-13 14:17:08.406250,7.25
2019-08-13 14:17:08.421875,10.44
2019-08-13 14:17:08.437500,7.88
2019-08-13 14:17:08.453125,3.49
2019-08-13 14:17:08.468750,2.59
2019-08-13 14:17:08.484375,8.71
2019-08-13 14:17:08.500000,21.13
2019-08-13 14:17:08.515625,35.05
2019-08-13 14:17:08.531250,44.07
2019-08-13 14:17:08.546875,43.84
2019-08-13 14:17:08.562500,34.67
2019-08-13 14:17:08.578125,21.28
2019-08-13 14:17:08.593750,10.35
2019-08-13 14:17:08.609375,6.59
2019-08-13 14:17:08.625000,10.34
2019-08-13 14:17:08.640625,17.49
2019-08-13 14:17:08.656250,22.11
2019-08-13 14:17:08.671875,19.99
2019-08-13 14:17:08.687500,11.11
2019-08-13 14:17:08.703125,-0.31
2019-08-13 14:17:08.718750,-8.48
2019-08-13 14:17:08.734375,-9.45
2019-08-13 14:17:08.750000,-3.38
2019-08-13 14:17:08.765625,5.62
2019-08-13 14:17:08.781250,11.81
2019-08-13 14:17:08.796875,11.18
2019-08-13 14:17:08.812500,3.69
2019-08-13 14:17:08.828125,-6.61
2019-08-13 14:17:08.843750,-13.68
2019-08-13 14:17:08.859375,-13.18
2019-08-13 14:17:08.875000,-4.56
2019-08-13 14:17:08.890625,8.32
2019-08-13 14:17:08.906250,19.43
2019-08-13 14:17:08.921875,23.9
2019-08-13 14:17:08.937500,20.56
2019-08-13 14:17:08.953125,12.48
2019-08-13 14:17:08.968750,4.85
2019-08-13 14:17:08.984375,1.92
2019-08-13 14:17:09.000000,4.38
2019-08-13 14:17:09.015625,9.36
2019-08-13 14:17:09.031250,12.09
2019-08-13 14:17:09.046875,9.22
2019-08-13 14:17:09.062500,1.02
2019-08-13 14:17:09.078125,-8.69
2019-08-13 14:17:09.093750,-14.53
2019-08-13 14:17:09.109375,-12.89
2019-08-13 14:17:09.125000,-3.98
2019-08-13 14:17:09.140625,8.11
2019-08-13 14:17:09.156250,17.58
2019-08-13 14:17:09.171875,20.24
2019-08-13 14:17:09.187500,15.87
2019-08-13 14:17:09.203125,8.47
2019-08-13 14:17:09.218750,3.95
2019-08-13 14:17:09.234375,6.63
2019-08-13 14:17:09.250000,16.67
2019-08-13 14:17:09.265625,29.59
2019-08-13 14:17:09.281250,38.77
2019-08-13 14:17:09.296875,39.16
2019-08-13 14:17:09.312500,30.25
2019-08-13 14:17:09.328125,16.4
2019-08-13 14:17:09.343750,4.5
2019-08-13 14:17:09.359375,-0.16
2019-08-13 14:17:09.375000,3.4
2019-08-13 14:17:09.390625,11.18
2019-08-13 14:17:09.406250,16.82
2019-08-13 14:17:09.421875,15.39
2019-08-13 14:17:09.437500,6.38
2019-08-13 14:17:09.453125,-6.03
2019-08-13 14:17:09.468750,-15.46
2019-08-13 14:17:09.484375,-16.95
2019-08-13 14:17:09.500000,-10.02
2019-08-13 14:17:09.515625,1.28
2019-08-13 14:17:09.531250,10.56
2019-08-13 14:17:09.546875,12.78
2019-08-13 14:17:09.562500,7.19
2019-08-13 14:17:09.578125,-2.4
2019-08-13 14:17:09.593750,-9.74
2019-08-13 14:17:09.609375,-9.84
2019-08-13 14:17:09.625000,-1.81
2019-08-13 14:17:09.640625,10.59
2019-08-13 14:17:09.656250,20.98
2019-08-13 14:17:09.671875,24.06
2019-08-13 14:17:09.687500,18.68
2019-08-13 14:17:09.703125,8.35
2019-08-13 14:17:09.718750,-0.78
2019-08-13 14:17:09.734375,-3.67
2019-08-13 14:17:09.750000,0.74
2019-08-13 14:17:09.765625,8.91
2019-08-13 14:17:09.781250,14.89
2019-08-13 14:17:09.796875,13.86
2019-08-13 14:17:09.812500,4.99
2019-08-13 14:17:09.828125,-8.04
2019-08-13 14:17:09.843750,-19.21
2019-08-13 14:17:09.859375,-23.63
2019-08-13 14:17:09.875000,-20.26
2019-08-13 14:17:09.890625,-12.18
2019-08-13 14:17:09.906250,-4.7
2019-08-13 14:17:09.921875,-2.13
2019-08-13 14:17:09.937500,-5.17
2019-08-13 14:17:09.953125,-10.71
2019-08-13 14:17:09.968750,-13.69
2019-08-13 14:17:09.984375,-10.25
2019-08-13 14:17:10.000000,-0.11
2019-08-13 14:17:10.015625,12.94
2019-08-13 14:17:10.031250,23.11
2019-08-13 14:17:10.046875,25.85
2019-08-13 14:17:10.062500,20.55
2019-08-13 14:17:10.078125,11.18
2019-08-13 14:17:10.093750,3.94
2019-08-13 14:17:10.109375,3.69
2019-08-13 14:17:10.125000,10.95
2019-08-13 14:17:10.140625,21.31
2019-08-13 14:17:10.156250,27.75
2019-08-13 14:17:10.171875,24.74
2019-08-13 14:17:10.187500,11.58
2019-08-13 14:17:10.203125,-7.07
2019-08-13 14:17:10.218750,-23.26
2019-08-13 14:17:10.234375,-30.23
2019-08-13 14:17:10.250000,-25.75
2019-08-13 14:17:10.265625,-13.31
2019-08-13 14:17:10.281250,0.33
2019-08-13 14:17:10.296875,8.9
2019-08-13 14:17:10.312500,10.04
2019-08-13 14:17:10.328125,6.2
2019-08-13 14:17:10.343750,2.56
2019-08-13 14:17:10.359375,3.54
2019-08-13 14:17:10.375000,9.65
2019-08-13 14:17:10.390625,17.35
2019-08-13 14:17:10.406250,21.07
2019-08-13 14:17:10.421875,16.86
2019-08-13 14:17:10.437500,5.25
2019-08-13 14:17:10.453125,-8.85
2019-08-13 14:17:10.468750,-18.46
2019-08-13 14:17:10.484375,-18.63
2019-08-13 14:17:10.500000,-9.02
2019-08-13 14:17:10.515625,5.66
2019-08-13 14:17:10.531250,18.31
2019-08-13 14:17:10.546875,23.29
2019-08-13 14:17:10.562500,19.18
2019-08-13 14:17:10.578125,9.39
2019-08-13 14:17:10.593750,-0.03
2019-08-13 14:17:10.609375,-4.11
2019-08-13 14:17:10.625000,-1.52
2019-08-13 14:17:10.640625,4.77
2019-08-13 14:17:10.656250,9.32
2019-08-13 14:17:10.671875,7.66
2019-08-13 14:17:10.687500,-1.16
2019-08-13 14:17:10.703125,-13.83
2019-08-13 14:17:10.718750,-24.45
2019-08-13 14:17:10.734375,-27.79
2019-08-13 14:17:10.750000,-21.86
2019-08-13 14:17:10.765625,-9.18
2019-08-13 14:17:10.781250,4.81
2019-08-13 14:17:10.796875,14.62
2019-08-13 14:17:10.812500,17.57
2019-08-13 14:17:10.828125,15.09
2019-08-13 14:17:10.843750,11.46
2019-08-13 14:17:10.859375,10.97
2019-08-13 14:17:10.875000,14.99
2019-08-13 14:17:10.890625,21.06
2019-08-13 14:17:10.906250,24.22
2019-08-13 14:17:10.921875,20.28
2019-08-13 14:17:10.937500,8.73
2019-08-13 14:17:10.953125,-6.53
2019-08-13 14:17:10.968750,-18.9
2019-08-13 14:17:10.984375,-22.8
2019-08-13 14:17:11.000000,-16.59
2019-08-13 14:17:11.015625,-3.68
2019-08-13 14:17:11.031250,9.48
2019-08-13 14:17:11.046875,16.82
2019-08-13 14:17:11.062500,15.71
2019-08-13 14:17:11.078125,8.05
2019-08-13 14:17:11.093750,-1.36
2019-08-13 14:17:11.109375,-7.83
2019-08-13 14:17:11.125000,-9.52
2019-08-13 14:17:11.140625,-8.15
2019-08-13 14:17:11.156250,-7.44
2019-08-13 14:17:11.171875,-10.18
2019-08-13 14:17:11.187500,-16.2
2019-08-13 14:17:11.203125,-22.0
2019-08-13 14:17:11.218750,-22.75
2019-08-13 14:17:11.234375,-15.46
2019-08-13 14:17:11.250000,-1.06
2019-08-13 14:17:11.265625,15.39
2019-08-13 14:17:11.281250,26.92
2019-08-13 14:17:11.296875,28.2
2019-08-13 14:17:11.312500,18.21
2019-08-13 14:17:11.328125,1.01
2019-08-13 14:17:11.343750,-16.19
2019-08-13 14:17:11.359375,-26.35
2019-08-13 14:17:11.375000,-26.04
2019-08-13 14:17:11.390625,-16.5
2019-08-13 14:17:11.406250,-2.86
2019-08-13 14:17:11.421875,9.01
2019-08-13 14:17:11.437500,15.29
2019-08-13 14:17:11.453125,16.0
2019-08-13 14:17:11.468750,14.29
2019-08-13 14:17:11.484375,14.04
2019-08-13 14:17:11.500000,17.37
2019-08-13 14:17:11.515625,22.86
2019-08-13 14:17:11.531250,26.52
2019-08-13 14:17:11.546875,24.17
2019-08-13 14:17:11.562500,14.22
2019-08-13 14:17:11.578125,-0.71
2019-08-13 14:17:11.593750,-15.02
2019-08-13 14:17:11.609375,-22.87
2019-08-13 14:17:11.625000,-21.36
2019-08-13 14:17:11.640625,-12.1
2019-08-13 14:17:11.656250,-0.39
2019-08-13 14:17:11.671875,7.66
2019-08-13 14:17:11.687500,8.47
2019-08-13 14:17:11.703125,2.8
2019-08-13 14:17:11.718750,-4.89
2019-08-13 14:17:11.734375,-9.45
2019-08-13 14:17:11.750000,-8.11
2019-08-13 14:17:11.765625,-2.28
2019-08-13 14:17:11.781250,3.37
2019-08-13 14:17:11.796875,3.87
2019-08-13 14:17:11.812500,-2.82
2019-08-13 14:17:11.828125,-14.33
2019-08-13 14:17:11.843750,-25.06
2019-08-13 14:17:11.859375,-29.18
2019-08-13 14:17:11.875000,-24.25
2019-08-13 14:17:11.890625,-12.52
2019-08-13 14:17:11.906250,0.0
2019-08-13 14:17:11.921875,7.05
2019-08-13 14:17:11.937500,5.77
2019-08-13 14:17:11.953125,-1.64
2019-08-13 14:17:11.968750,-9.18
2019-08-13 14:17:11.984375,-10.64
2019-08-13 14:17:12.000000,-3.24
2019-08-13 14:17:12.015625,10.42
2019-08-13 14:17:12.031250,24.03
2019-08-13 14:17:12.046875,31.17
2019-08-13 14:17:12.062500,29.18
2019-08-13 14:17:12.078125,20.6
2019-08-13 14:17:12.093750,11.63
2019-08-13 14:17:12.109375,8.17
2019-08-13 14:17:12.125000,12.11
2019-08-13 14:17:12.140625,20.27
2019-08-13 14:17:12.156250,26.28
2019-08-13 14:17:12.171875,24.63
2019-08-13 14:17:12.187500,13.89
2019-08-13 14:17:12.203125,-2.07
2019-08-13 14:17:12.218750,-16.26
2019-08-13 14:17:12.234375,-22.56
2019-08-13 14:17:12.250000,-18.88
2019-08-13 14:17:12.265625,-8.33
2019-08-13 14:17:12.281250,2.8
2019-08-13 14:17:12.296875,8.6
2019-08-13 14:17:12.312500,6.82
2019-08-13 14:17:12.328125,-0.24
2019-08-13 14:17:12.343750,-7.35
2019-08-13 14:17:12.359375,-9.66
2019-08-13 14:17:12.375000,-5.76
2019-08-13 14:17:12.390625,1.67
2019-08-13 14:17:12.406250,7.45
2019-08-13 14:17:12.421875,7.08
2019-08-13 14:17:12.437500,-0.22
2019-08-13 14:17:12.453125,-10.91
2019-08-13 14:17:12.468750,-18.97
2019-08-13 14:17:12.484375,-19.36
2019-08-13 14:17:12.500000,-10.82
2019-08-13 14:17:12.515625,2.96
2019-08-13 14:17:12.531250,15.48
2019-08-13 14:17:12.546875,20.69
2019-08-13 14:17:12.562500,16.5
2019-08-13 14:17:12.578125,5.81
2019-08-13 14:17:12.593750,-4.95
2019-08-13 14:17:12.609375,-9.39
2019-08-13 14:17:12.625000,-4.73
2019-08-13 14:17:12.640625,6.71
2019-08-13 14:17:12.656250,18.79
2019-08-13 14:17:12.671875,24.85
2019-08-13 14:17:12.687500,21.46
2019-08-13 14:17:12.703125,10.11
2019-08-13 14:17:12.718750,-3.44
2019-08-13 14:17:12.734375,-12.62
2019-08-13 14:17:12.750000,-13.61
2019-08-13 14:17:12.765625,-7.34
2019-08-13 14:17:12.781250,1.09
2019-08-13 14:17:12.796875,5.73
2019-08-13 14:17:12.812500,3.53
2019-08-13 14:17:12.828125,-3.86
2019-08-13 14:17:12.843750,-10.88
2019-08-13 14:17:12.859375,-11.69
2019-08-13 14:17:12.875000,-4.06
2019-08-13 14:17:12.890625,8.95
2019-08-13 14:17:12.906250,20.37
2019-08-13 14:17:12.921875,23.46
2019-08-13 14:17:12.937500,15.73
2019-08-13 14:17:12.953125,0.61
2019-08-13 14:17:12.968750,-14.3
2019-08-13 14:17:12.984375,-21.72
2019-08-13 14:17:13.000000,-18.68
2019-08-13 14:17:13.015625,-8.21
2019-08-13 14:17:13.031250,2.93
2019-08-13 14:17:13.046875,8.08
2019-08-13 14:17:13.062500,4.72
2019-08-13 14:17:13.078125,-4.28
2019-08-13 14:17:13.093750,-12.52
2019-08-13 14:17:13.109375,-13.91
2019-08-13 14:17:13.125000,-6.27
2019-08-13 14:17:13.140625,7.51
2019-08-13 14:17:13.156250,21.03
2019-08-13 14:17:13.171875,28.01
2019-08-13 14:17:13.187500,25.76
2019-08-13 14:17:13.203125,16.49
2019-08-13 14:17:13.218750,5.99
2019-08-13 14:17:13.234375,0.22
2019-08-13 14:17:13.250000,1.83
2019-08-13 14:17:13.265625,8.67
2019-08-13 14:17:13.281250,15.14
2019-08-13 14:17:13.296875,15.56
2019-08-13 14:17:13.312500,7.8
2019-08-13 14:17:13.328125,-5.31
2019-08-13 14:17:13.343750,-17.3
2019-08-13 14:17:13.359375,-21.81
2019-08-13 14:17:13.375000,-16.37
2019-08-13 14:17:13.390625,-4.01
2019-08-13 14:17:13.406250,8.3
2019-08-13 14:17:13.421875,13.55
2019-08-13 14:17:13.437500,8.67
2019-08-13 14:17:13.453125,-3.84
2019-08-13 14:17:13.468750,-17.38
2019-08-13 14:17:13.484375,-25.09
2019-08-13 14:17:13.500000,-23.56
2019-08-13 14:17:13.515625,-14.61
2019-08-13 14:17:13.531250,-3.91
2019-08-13 14:17:13.546875,2.23
2019-08-13 14:17:13.562500,0.29
2019-08-13 14:17:13.578125,-8.6
2019-08-13 14:17:13.593750,-19.55
2019-08-13 14:17:13.609375,-26.5
2019-08-13 14:17:13.625000,-25.56
2019-08-13 14:17:13.640625,-16.74
2019-08-13 14:17:13.656250,-4.02
2019-08-13 14:17:13.671875,7.05
2019-08-13 14:17:13.687500,12.25
2019-08-13 14:17:13.703125,10.99
2019-08-13 14:17:13.718750,6.34
2019-08-13 14:17:13.734375,3.21
2019-08-13 14:17:13.750000,5.08
2019-08-13 14:17:13.765625,11.72
2019-08-13 14:17:13.781250,18.82
2019-08-13 14:17:13.796875,20.41
2019-08-13 14:17:13.812500,12.73
2019-08-13 14:17:13.828125,-2.99
2019-08-13 14:17:13.843750,-20.38
2019-08-13 14:17:13.859375,-30.94
2019-08-13 14:17:13.875000,-28.85
2019-08-13 14:17:13.890625,-14.36
2019-08-13 14:17:13.906250,6.08
2019-08-13 14:17:13.921875,23.17
2019-08-13 14:17:13.937500,30.0
2019-08-13 14:17:13.953125,25.76
2019-08-13 14:17:13.968750,15.64
2019-08-13 14:17:13.984375,7.3
2019-08-13 14:17:14.000000,5.95
2019-08-13 14:17:14.015625,11.07
2019-08-13 14:17:14.031250,17.11
2019-08-13 14:17:14.046875,17.21
2019-08-13 14:17:14.062500,7.89
2019-08-13 14:17:14.078125,-8.22
2019-08-13 14:17:14.093750,-23.75
2019-08-13 14:17:14.109375,-30.49
2019-08-13 14:17:14.125000,-24.41
2019-08-13 14:17:14.140625,-7.64
2019-08-13 14:17:14.156250,12.4
2019-08-13 14:17:14.171875,27.24
2019-08-13 14:17:14.187500,31.73
2019-08-13 14:17:14.203125,26.72
2019-08-13 14:17:14.218750,17.85
2019-08-13 14:17:14.234375,11.84
2019-08-13 14:17:14.250000,12.15
2019-08-13 14:17:14.265625,16.86
2019-08-13 14:17:14.281250,19.98
2019-08-13 14:17:14.296875,15.42
2019-08-13 14:17:14.312500,1.5
2019-08-13 14:17:14.328125,-17.37
2019-08-13 14:17:14.343750,-32.55
2019-08-13 14:17:14.359375,-35.79
2019-08-13 14:17:14.375000,-24.16
2019-08-13 14:17:14.390625,-1.96
2019-08-13 14:17:14.406250,21.04
2019-08-13 14:17:14.421875,34.3
2019-08-13 14:17:14.437500,31.78
2019-08-13 14:17:14.453125,14.9
2019-08-13 14:17:14.468750,-8.48
2019-08-13 14:17:14.484375,-28.18
2019-08-13 14:17:14.500000,-36.76
2019-08-13 14:17:14.515625,-33.02
2019-08-13 14:17:14.531250,-21.79
2019-08-13 14:17:14.546875,-10.65
2019-08-13 14:17:14.562500,-5.4
2019-08-13 14:17:14.578125,-6.82
2019-08-13 14:17:14.593750,-10.77
2019-08-13 14:17:14.609375,-11.32
2019-08-13 14:17:14.625000,-5.34
2019-08-13 14:17:14.640625,5.17
2019-08-13 14:17:14.656250,13.79
2019-08-13 14:17:14.671875,13.75
2019-08-13 14:17:14.687500,2.57
2019-08-13 14:17:14.703125,-15.55
2019-08-13 14:17:14.718750,-31.65
2019-08-13 14:17:14.734375,-36.84
2019-08-13 14:17:14.750000,-27.63
2019-08-13 14:17:14.765625,-8.14
2019-08-13 14:17:14.781250,12.07
2019-08-13 14:17:14.796875,23.48
2019-08-13 14:17:14.812500,21.96
2019-08-13 14:17:14.828125,10.98
2019-08-13 14:17:14.843750,-0.99
2019-08-13 14:17:14.859375,-5.55
2019-08-13 14:17:14.875000,0.22
2019-08-13 14:17:14.890625,11.98
2019-08-13 14:17:14.906250,20.97
2019-08-13 14:17:14.921875,19.41
2019-08-13 14:17:14.937500,5.61
2019-08-13 14:17:14.953125,-14.65
2019-08-13 14:17:14.968750,-31.03
2019-08-13 14:17:14.984375,-34.52
2019-08-13 14:17:15.000000,-22.55
2019-08-13 14:17:15.015625,-0.33
2019-08-13 14:17:15.031250,21.86
2019-08-13 14:17:15.046875,34.42
2019-08-13 14:17:15.062500,33.71
2019-08-13 14:17:15.078125,23.38
2019-08-13 14:17:15.093750,11.82
2019-08-13 14:17:15.109375,6.91
2019-08-13 14:17:15.125000,11.16
2019-08-13 14:17:15.140625,20.37
2019-08-13 14:17:15.156250,26.38
2019-08-13 14:17:15.171875,22.22
2019-08-13 14:17:15.187500,6.7
2019-08-13 14:17:15.203125,-14.33
2019-08-13 14:17:15.218750,-30.81
2019-08-13 14:17:15.234375,-34.03
2019-08-13 14:17:15.250000,-21.27
2019-08-13 14:17:15.265625,2.44
2019-08-13 14:17:15.281250,26.89
2019-08-13 14:17:15.296875,41.63
2019-08-13 14:17:15.312500,40.99
2019-08-13 14:17:15.328125,26.73
2019-08-13 14:17:15.343750,6.22
2019-08-13 14:17:15.359375,-11.34
2019-08-13 14:17:15.375000,-19.61
2019-08-13 14:17:15.390625,-18.0
2019-08-13 14:17:15.406250,-11.1
2019-08-13 14:17:15.421875,-5.59
2019-08-13 14:17:15.437500,-6.07
2019-08-13 14:17:15.453125,-12.55
2019-08-13 14:17:15.468750,-20.5
2019-08-13 14:17:15.484375,-23.82
2019-08-13 14:17:15.500000,-19.05
2019-08-13 14:17:15.515625,-7.61
2019-08-13 14:17:15.531250,4.58
2019-08-13 14:17:15.546875,10.28
2019-08-13 14:17:15.562500,5.38
2019-08-13 14:17:15.578125,-8.35
2019-08-13 14:17:15.593750,-24.13
2019-08-13 14:17:15.609375,-33.66
2019-08-13 14:17:15.625000,-31.97
2019-08-13 14:17:15.640625,-20.13
2019-08-13 14:17:15.656250,-4.41
2019-08-13 14:17:15.671875,7.51
2019-08-13 14:17:15.687500,11.11
2019-08-13 14:17:15.703125,7.33
2019-08-13 14:17:15.718750,1.66
2019-08-13 14:17:15.734375,0.36
2019-08-13 14:17:15.750000,6.6
2019-08-13 14:17:15.765625,18.24
2019-08-13 14:17:15.781250,28.99
2019-08-13 14:17:15.796875,31.8
2019-08-13 14:17:15.812500,22.89
2019-08-13 14:17:15.828125,4.16
2019-08-13 14:17:15.843750,-17.53
2019-08-13 14:17:15.859375,-33.39
2019-08-13 14:17:15.875000,-37.26
2019-08-13 14:17:15.890625,-28.46
2019-08-13 14:17:15.906250,-12.13
2019-08-13 14:17:15.921875,3.74
2019-08-13 14:17:15.937500,12.65
2019-08-13 14:17:15.953125,12.72
2019-08-13 14:17:15.968750,7.49
2019-08-13 14:17:15.984375,2.97
2019-08-13 14:17:16.000000,3.86
2019-08-13 14:17:16.015625,10.25
2019-08-13 14:17:16.031250,17.84
2019-08-13 14:17:16.046875,20.92
2019-08-13 14:17:16.062500,16.4
2019-08-13 14:17:16.078125,6.55
2019-08-13 14:17:16.093750,-2.14
2019-08-13 14:17:16.109375,-2.81
2019-08-13 14:17:16.125000,7.12
2019-08-13 14:17:16.140625,24.01
2019-08-13 14:17:16.156250,39.27
2019-08-13 14:17:16.171875,44.1
2019-08-13 14:17:16.187500,34.36
2019-08-13 14:17:16.203125,13.15
2019-08-13 14:17:16.218750,-10.8
2019-08-13 14:17:16.234375,-27.6
2019-08-13 14:17:16.250000,-31.68
2019-08-13 14:17:16.265625,-24.61
2019-08-13 14:17:16.281250,-14.01
2019-08-13 14:17:16.296875,-8.98
2019-08-13 14:17:16.312500,-14.54
2019-08-13 14:17:16.328125,-28.45
2019-08-13 14:17:16.343750,-42.55
2019-08-13 14:17:16.359375,-47.29
2019-08-13 14:17:16.375000,-37.76
2019-08-13 14:17:16.390625,-16.49
2019-08-13 14:17:16.406250,7.81
2019-08-13 14:17:16.421875,25.16
2019-08-13 14:17:16.437500,29.82
2019-08-13 14:17:16.453125,23.05
2019-08-13 14:17:16.468750,11.6
2019-08-13 14:17:16.484375,3.13
2019-08-13 14:17:16.500000,1.74
2019-08-13 14:17:16.515625,5.7
2019-08-13 14:17:16.531250,9.24
2019-08-13 14:17:16.546875,6.95
2019-08-13 14:17:16.562500,-2.4
2019-08-13 14:17:16.578125,-14.56
2019-08-13 14:17:16.593750,-22.05
2019-08-13 14:17:16.609375,-18.55
2019-08-13 14:17:16.625000,-3.02
2019-08-13 14:17:16.640625,18.99
2019-08-13 14:17:16.656250,37.43
2019-08-13 14:17:16.671875,42.74
2019-08-13 14:17:16.687500,31.0
2019-08-13 14:17:16.703125,6.34
2019-08-13 14:17:16.718750,-21.01
2019-08-13 14:17:16.734375,-39.58
2019-08-13 14:17:16.750000,-42.69
2019-08-13 14:17:16.765625,-31.55
2019-08-13 14:17:16.781250,-13.98
2019-08-13 14:17:16.796875,0.47
2019-08-13 14:17:16.812500,6.1
2019-08-13 14:17:16.828125,3.81
2019-08-13 14:17:16.843750,-0.48
2019-08-13 14:17:16.859375,-0.27
2019-08-13 14:17:16.875000,6.77
2019-08-13 14:17:16.890625,17.35
2019-08-13 14:17:16.906250,24.65
2019-08-13 14:17:16.921875,23.11
2019-08-13 14:17:16.937500,11.91
2019-08-13 14:17:16.953125,-3.99
2019-08-13 14:17:16.968750,-16.73
2019-08-13 14:17:16.984375,-20.06
2019-08-13 14:17:17.000000,-12.6
2019-08-13 14:17:17.015625,1.55
2019-08-13 14:17:17.031250,15.04
2019-08-13 14:17:17.046875,21.38
2019-08-13 14:17:17.062500,18.39
2019-08-13 14:17:17.078125,9.11
2019-08-13 14:17:17.093750,0.02
2019-08-13 14:17:17.109375,-2.9
2019-08-13 14:17:17.125000,2.53
2019-08-13 14:17:17.140625,13.14
2019-08-13 14:17:17.156250,22.21
2019-08-13 14:17:17.171875,23.03
2019-08-13 14:17:17.187500,12.92
2019-08-13 14:17:17.203125,-4.71
2019-08-13 14:17:17.218750,-22.11
2019-08-13 14:17:17.234375,-30.98
2019-08-13 14:17:17.250000,-27.28
2019-08-13 14:17:17.265625,-13.29
2019-08-13 14:17:17.281250,3.58
2019-08-13 14:17:17.296875,15.06
2019-08-13 14:17:17.312500,16.63
2019-08-13 14:17:17.328125,9.99
2019-08-13 14:17:17.343750,1.43
2019-08-13 14:17:17.359375,-2.19
2019-08-13 14:17:17.375000,1.94
2019-08-13 14:17:17.390625,11.0
2019-08-13 14:17:17.406250,18.01
2019-08-13 14:17:17.421875,16.6
2019-08-13 14:17:17.437500,5.28
2019-08-13 14:17:17.453125,-11.3
2019-08-13 14:17:17.468750,-24.54
2019-08-13 14:17:17.484375,-26.87
2019-08-13 14:17:17.500000,-16.12
2019-08-13 14:17:17.515625,3.26
2019-08-13 14:17:17.531250,22.52
2019-08-13 14:17:17.546875,33.35
2019-08-13 14:17:17.562500,32.24
2019-08-13 14:17:17.578125,21.85
2019-08-13 14:17:17.593750,9.05
2019-08-13 14:17:17.609375,0.63
2019-08-13 14:17:17.625000,-0.49
2019-08-13 14:17:17.640625,3.54
2019-08-13 14:17:17.656250,7.49
2019-08-13 14:17:17.671875,6.65
2019-08-13 14:17:17.687500,0.05
2019-08-13 14:17:17.703125,-8.8
2019-08-13 14:17:17.718750,-13.97
2019-08-13 14:17:17.734375,-10.83
2019-08-13 14:17:17.750000,0.85
2019-08-13 14:17:17.765625,16.42
2019-08-13 14:17:17.781250,28.22
2019-08-13 14:17:17.796875,29.71
2019-08-13 14:17:17.812500,18.8
2019-08-13 14:17:17.828125,-0.9
2019-08-13 14:17:17.843750,-21.85
2019-08-13 14:17:17.859375,-36.32
2019-08-13 14:17:17.875000,-40.12
2019-08-13 14:17:17.890625,-34.19
2019-08-13 14:17:17.906250,-23.62
2019-08-13 14:17:17.921875,-14.54
2019-08-13 14:17:17.937500,-10.6
2019-08-13 14:17:17.953125,-11.26
2019-08-13 14:17:17.968750,-12.67
2019-08-13 14:17:17.984375,-10.44
2019-08-13 14:17:18.000000,-2.96
2019-08-13 14:17:18.015625,7.39
2019-08-13 14:17:18.031250,15.17
2019-08-13 14:17:18.046875,15.0
2019-08-13 14:17:18.062500,4.8
2019-08-13 14:17:18.078125,-12.58
2019-08-13 14:17:18.093750,-30.35
2019-08-13 14:17:18.109375,-41.03
2019-08-13 14:17:18.125000,-40.18
2019-08-13 14:17:18.140625,-28.49
2019-08-13 14:17:18.156250,-11.45
2019-08-13 14:17:18.171875,3.56
2019-08-13 14:17:18.187500,11.17
2019-08-13 14:17:18.203125,10.66
2019-08-13 14:17:18.218750,6.07
2019-08-13 14:17:18.234375,3.34
2019-08-13 14:17:18.250000,6.32
2019-08-13 14:17:18.265625,14.5
2019-08-13 14:17:18.281250,22.9
2019-08-13 14:17:18.296875,25.25
2019-08-13 14:17:18.312500,18.02
2019-08-13 14:17:18.328125,3.08
2019-08-13 14:17:18.343750,-12.71
2019-08-13 14:17:18.359375,-21.16
2019-08-13 14:17:18.375000,-17.32
2019-08-13 14:17:18.390625,-2.54
2019-08-13 14:17:18.406250,16.13
2019-08-13 14:17:18.421875,29.73
2019-08-13 14:17:18.437500,32.34
2019-08-13 14:17:18.453125,24.25
2019-08-13 14:17:18.468750,11.49
2019-08-13 14:17:18.484375,1.9
2019-08-13 14:17:18.500000,0.42
2019-08-13 14:17:18.515625,6.32
2019-08-13 14:17:18.531250,13.63
2019-08-13 14:17:18.546875,15.1
2019-08-13 14:17:18.562500,6.59
2019-08-13 14:17:18.578125,-10.21
2019-08-13 14:17:18.593750,-28.48
2019-08-13 14:17:18.609375,-40.05
2019-08-13 14:17:18.625000,-39.83
2019-08-13 14:17:18.640625,-28.39
2019-08-13 14:17:18.656250,-11.29
2019-08-13 14:17:18.671875,4.12
2019-08-13 14:17:18.687500,12.93
2019-08-13 14:17:18.703125,14.73
2019-08-13 14:17:18.718750,13.29
2019-08-13 14:17:18.734375,13.67
2019-08-13 14:17:18.750000,18.53
2019-08-13 14:17:18.765625,26.42
2019-08-13 14:17:18.781250,32.74
2019-08-13 14:17:18.796875,32.99
2019-08-13 14:17:18.812500,26.06
2019-08-13 14:17:18.828125,15.75
2019-08-13 14:17:18.843750,8.57
2019-08-13 14:17:18.859375,9.89
2019-08-13 14:17:18.875000,20.12
2019-08-13 14:17:18.890625,33.69
2019-08-13 14:17:18.906250,41.73
2019-08-13 14:17:18.921875,37.14
2019-08-13 14:17:18.937500,18.74
2019-08-13 14:17:18.953125,-7.53
2019-08-13 14:17:18.968750,-31.29
2019-08-13 14:17:18.984375,-43.37
2019-08-13 14:17:19.000000,-40.42
2019-08-13 14:17:19.015625,-26.25
2019-08-13 14:17:19.031250,-9.65
2019-08-13 14:17:19.046875,0.7
2019-08-13 14:17:19.062500,0.5
2019-08-13 14:17:19.078125,-8.58
2019-08-13 14:17:19.093750,-20.48
2019-08-13 14:17:19.109375,-28.84
2019-08-13 14:17:19.125000,-30.24
2019-08-13 14:17:19.140625,-25.55
2019-08-13 14:17:19.156250,-18.62
2019-08-13 14:17:19.171875,-13.51
2019-08-13 14:17:19.187500,-11.37
2019-08-13 14:17:19.203125,-10.26
2019-08-13 14:17:19.218750,-6.34
2019-08-13 14:17:19.234375,3.05
2019-08-13 14:17:19.250000,17.15
2019-08-13 14:17:19.265625,31.39
2019-08-13 14:17:19.281250,39.29
2019-08-13 14:17:19.296875,35.87
2019-08-13 14:17:19.312500,20.47
2019-08-13 14:17:19.328125,-2.08
2019-08-13 14:17:19.343750,-23.29
2019-08-13 14:17:19.359375,-34.82
2019-08-13 14:17:19.375000,-32.29
2019-08-13 14:17:19.390625,-17.66
2019-08-13 14:17:19.406250,1.79
2019-08-13 14:17:19.421875,16.94
2019-08-13 14:17:19.437500,21.24
2019-08-13 14:17:19.453125,13.79
2019-08-13 14:17:19.468750,-0.64
2019-08-13 14:17:19.484375,-14.64
2019-08-13 14:17:19.500000,-22.51
2019-08-13 14:17:19.515625,-22.84
2019-08-13 14:17:19.531250,-18.97
2019-08-13 14:17:19.546875,-15.85
2019-08-13 14:17:19.562500,-16.42
2019-08-13 14:17:19.578125,-19.44
2019-08-13 14:17:19.593750,-20.33
2019-08-13 14:17:19.609375,-14.72
2019-08-13 14:17:19.625000,-1.98
2019-08-13 14:17:19.640625,13.32
2019-08-13 14:17:19.656250,23.62
2019-08-13 14:17:19.671875,22.65
2019-08-13 14:17:19.687500,9.97
2019-08-13 14:17:19.703125,-8.16
2019-08-13 14:17:19.718750,-21.73
2019-08-13 14:17:19.734375,-22.13
2019-08-13 14:17:19.750000,-7.24
2019-08-13 14:17:19.765625,17.22
2019-08-13 14:17:19.781250,40.3
2019-08-13 14:17:19.796875,51.36
2019-08-13 14:17:19.812500,45.39
2019-08-13 14:17:19.828125,25.46
2019-08-13 14:17:19.843750,1.03
2019-08-13 14:17:19.859375,-17.27
2019-08-13 14:17:19.875000,-22.84
2019-08-13 14:17:19.890625,-16.26
2019-08-13 14:17:19.906250,-4.17
2019-08-13 14:17:19.921875,5.03
2019-08-13 14:17:19.937500,6.06
2019-08-13 14:17:19.953125,-0.4
2019-08-13 14:17:19.968750,-8.7
2019-08-13 14:17:19.984375,-12.19
2019-08-13 14:17:20.000000,-7.84
2019-08-13 14:17:20.015625,1.81
2019-08-13 14:17:20.031250,9.69
2019-08-13 14:17:20.046875,8.95
2019-08-13 14:17:20.062500,-2.61
2019-08-13 14:17:20.078125,-20.5
2019-08-13 14:17:20.093750,-35.58
2019-08-13 14:17:20.109375,-39.16
2019-08-13 14:17:20.125000,-27.81
2019-08-13 14:17:20.140625,-5.61
2019-08-13 14:17:20.156250,17.9
2019-08-13 14:17:20.171875,32.31
2019-08-13 14:17:20.187500,31.72
2019-08-13 14:17:20.203125,17.72
2019-08-13 14:17:20.218750,-2.14
2019-08-13 14:17:20.234375,-18.26
2019-08-13 14:17:20.250000,-24.2
2019-08-13 14:17:20.265625,-19.64
2019-08-13 14:17:20.281250,-9.65
2019-08-13 14:17:20.296875,-0.97
2019-08-13 14:17:20.312500,2.23
2019-08-13 14:17:20.328125,0.66
2019-08-13 14:17:20.343750,-1.1
2019-08-13 14:17:20.359375,1.85
2019-08-13 14:17:20.375000,11.04
2019-08-13 14:17:20.390625,23.22
2019-08-13 14:17:20.406250,32.02
2019-08-13 14:17:20.421875,31.72
2019-08-13 14:17:20.437500,20.97
2019-08-13 14:17:20.453125,3.86
2019-08-13 14:17:20.468750,-12.06
2019-08-13 14:17:20.484375,-19.65
2019-08-13 14:17:20.500000,-16.17
2019-08-13 14:17:20.515625,-4.34
2019-08-13 14:17:20.531250,9.04
2019-08-13 14:17:20.546875,17.2
2019-08-13 14:17:20.562500,16.94
2019-08-13 14:17:20.578125,10.31
2019-08-13 14:17:20.593750,3.11
2019-08-13 14:17:20.609375,1.01
2019-08-13 14:17:20.625000,6.14
2019-08-13 14:17:20.640625,15.39
2019-08-13 14:17:20.656250,22.26
2019-08-13 14:17:20.671875,20.72
2019-08-13 14:17:20.687500,9.14
2019-08-13 14:17:20.703125,-8.12
2019-08-13 14:17:20.718750,-22.71
2019-08-13 14:17:20.734375,-26.96
2019-08-13 14:17:20.750000,-18.17
2019-08-13 14:17:20.765625,-0.47
2019-08-13 14:17:20.781250,17.22
2019-08-13 14:17:20.796875,26.08
2019-08-13 14:17:20.812500,21.96
2019-08-13 14:17:20.828125,7.52
2019-08-13 14:17:20.843750,-9.48
2019-08-13 14:17:20.859375,-20.61
2019-08-13 14:17:20.875000,-21.18
2019-08-13 14:17:20.890625,-12.52
2019-08-13 14:17:20.906250,-0.57
2019-08-13 14:17:20.921875,7.84
2019-08-13 14:17:20.937500,9.01
2019-08-13 14:17:20.953125,4.59
2019-08-13 14:17:20.968750,-0.0
2019-08-13 14:17:20.984375,0.83
2019-08-13 14:17:21.000000,9.08
2019-08-13 14:17:21.015625,21.6
2019-08-13 14:17:21.031250,31.68
2019-08-13 14:17:21.046875,32.68
2019-08-13 14:17:21.062500,21.96
2019-08-13 14:17:21.078125,2.72
2019-08-13 14:17:21.093750,-17.33
2019-08-13 14:17:21.109375,-29.86
2019-08-13 14:17:21.125000,-30.18
2019-08-13 14:17:21.140625,-19.42
2019-08-13 14:17:21.156250,-4.04
2019-08-13 14:17:21.171875,7.95
2019-08-13 14:17:21.187500,11.47
2019-08-13 14:17:21.203125,6.69
2019-08-13 14:17:21.218750,-1.26
2019-08-13 14:17:21.234375,-5.81
2019-08-13 14:17:21.250000,-2.92
2019-08-13 14:17:21.265625,6.35
2019-08-13 14:17:21.281250,16.39
2019-08-13 14:17:21.296875,20.5
2019-08-13 14:17:21.312500,14.8
2019-08-13 14:17:21.328125,0.63
2019-08-13 14:17:21.343750,-15.94
2019-08-13 14:17:21.359375,-27.53
2019-08-13 14:17:21.375000,-29.43
2019-08-13 14:17:21.390625,-22.01
2019-08-13 14:17:21.406250,-10.17
2019-08-13 14:17:21.421875,-0.3
2019-08-13 14:17:21.437500,3.21
2019-08-13 14:17:21.453125,0.31
2019-08-13 14:17:21.468750,-5.01
2019-08-13 14:17:21.484375,-7.67
2019-08-13 14:17:21.500000,-4.63
2019-08-13 14:17:21.515625,2.95
2019-08-13 14:17:21.531250,10.42
2019-08-13 14:17:21.546875,12.3
2019-08-13 14:17:21.562500,5.74
2019-08-13 14:17:21.578125,-7.37
2019-08-13 14:17:21.593750,-21.06
2019-08-13 14:17:21.609375,-28.63
2019-08-13 14:17:21.625000,-26.46
2019-08-13 14:17:21.640625,-16.07
2019-08-13 14:17:21.656250,-3.6
2019-08-13 14:17:21.671875,3.85
2019-08-13 14:17:21.687500,2.28
2019-08-13 14:17:21.703125,-6.89
2019-08-13 14:17:21.718750,-17.93
2019-08-13 14:17:21.734375,-24.27
2019-08-13 14:17:21.750000,-22.64
2019-08-13 14:17:21.765625,-15.09
2019-08-13 14:17:21.781250,-7.86
2019-08-13 14:17:21.796875,-7.52
2019-08-13 14:17:21.812500,-16.7
2019-08-13 14:17:21.828125,-32.46
2019-08-13 14:17:21.843750,-47.6
2019-08-13 14:17:21.859375,-54.64
2019-08-13 14:17:21.875000,-50.3
2019-08-13 14:17:21.890625,-37.0
2019-08-13 14:17:21.906250,-22.05
2019-08-13 14:17:21.921875,-13.38
2019-08-13 14:17:21.937500,-15.58
2019-08-13 14:17:21.953125,-27.53
2019-08-13 14:17:21.968750,-43.68
2019-08-13 14:17:21.984375,-57.3
2019-08-13 14:17:22.000000,-64.39
2019-08-13 14:17:22.015625,-65.88
2019-08-13 14:17:22.031250,-66.43
2019-08-13 14:17:22.046875,-71.33
2019-08-13 14:17:22.062500,-82.73
2019-08-13 14:17:22.078125,-98.24
2019-08-13 14:17:22.093750,-112.15
2019-08-13 14:17:22.109375,-119.46
2019-08-13 14:17:22.125000,-118.74
2019-08-13 14:17:22.140625,-113.2
2019-08-13 14:17:22.156250,-109.03
2019-08-13 14:17:22.171875,-111.57
2019-08-13 14:17:22.187500,-122.27
2019-08-13 14:17:22.203125,-137.78
2019-08-13 14:17:22.218750,-152.07
2019-08-13 14:17:22.234375,-159.93
2019-08-13 14:17:22.250000,-160.47
2019-08-13 14:17:22.265625,-157.26
2019-08-13 14:17:22.281250,-156.42
2019-08-13 14:17:22.296875,-163.04
2019-08-13 14:17:22.312500,-178.11
2019-08-13 14:17:22.328125,-197.76
2019-08-13 14:17:22.343750,-214.74
2019-08-13 14:17:22.359375,-221.78
2019-08-13 14:17:22.375000,-214.73
2019-08-13 14:17:22.390625,-194.28
2019-08-13 14:17:22.406250,-164.99
2019-08-13 14:17:22.421875,-132.73
2019-08-13 14:17:22.437500,-102.0
2019-08-13 14:17:22.453125,-74.08
2019-08-13 14:17:22.468750,-47.24
2019-08-13 14:17:22.484375,-18.04
2019-08-13 14:17:22.500000,16.85
2019-08-13 14:17:22.515625,60.68
2019-08-13 14:17:22.531250,114.54
2019-08-13 14:17:22.546875,177.87
2019-08-13 14:17:22.562500,249.22
2019-08-13 14:17:22.578125,326.12
2019-08-13 14:17:22.593750,404.97
2019-08-13 14:17:22.609375,480.71
2019-08-13 14:17:22.625000,546.98
2019-08-13 14:17:22.640625,596.69
2019-08-13 14:17:22.656250,624.83
2019-08-13 14:17:22.671875,627.64
2019-08-13 14:17:22.687500,604.33
2019-08-13 14:17:22.703125,558.15
2019-08-13 14:17:22.718750,496.47
2019-08-13 14:17:22.734375,429.22
2019-08-13 14:17:22.750000,365.57
2019-08-13 14:17:22.765625,310.57
2019-08-13 14:17:22.781250,263.4
2019-08-13 14:17:22.796875,217.86
2019-08-13 14:17:22.812500,165.77
2019-08-13 14:17:22.828125,100.84
2019-08-13 14:17:22.843750,21.19
2019-08-13 14:17:22.859375,-70.11
2019-08-13 14:17:22.875000,-166.68
2019-08-13 14:17:22.890625,-261.9
2019-08-13 14:17:22.906250,-351.36
2019-08-13 14:17:22.921875,-433.19
2019-08-13 14:17:22.937500,-507.09
2019-08-13 14:17:22.953125,-573.12
2019-08-13 14:17:22.968750,-630.33
2019-08-13 14:17:22.984375,-677.49
2019-08-13 14:17:23.000000,-713.64
2019-08-13 14:17:23.015625,-738.89
2019-08-13 14:17:23.031250,-754.33
2019-08-13 14:17:23.046875,-761.77
2019-08-13 14:17:23.062500,-762.51
2019-08-13 14:17:23.078125,-756.51
2019-08-13 14:17:23.093750,-744.9
2019-08-13 14:17:23.109375,-725.49
2019-08-13 14:17:23.125000,-695.01
2019-08-13 14:17:23.140625,-650.39
2019-08-13 14:17:23.156250,-589.68
2019-08-13 14:17:23.171875,-512.46
2019-08-13 14:17:23.187500,-420.04
2019-08-13 14:17:23.203125,-314.75
2019-08-13 14:17:23.218750,-199.52
2019-08-13 14:17:23.234375,-77.75
2019-08-13 14:17:23.250000,46.93
2019-08-13 14:17:23.265625,169.3
2019-08-13 14:17:23.281250,283.11
2019-08-13 14:17:23.296875,381.79
2019-08-13 14:17:23.312500,461.78
2019-08-13 14:17:23.328125,520.69
2019-08-13 14:17:23.343750,557.9
2019-08-13 14:17:23.359375,574.64
2019-08-13 14:17:23.375000,573.77
2019-08-13 14:17:23.390625,560.0
2019-08-13 14:17:23.406250,539.09
2019-08-13 14:17:23.421875,516.79
2019-08-13 14:17:23.437500,498.26
2019-08-13 14:17:23.453125,487.6
2019-08-13 14:17:23.468750,487.45
2019-08-13 14:17:23.484375,499.11
2019-08-13 14:17:23.500000,522.85
2019-08-13 14:17:23.515625,555.39
2019-08-13 14:17:23.531250,593.27
2019-08-13 14:17:23.546875,633.11
2019-08-13 14:17:23.562500,670.96
2019-08-13 14:17:23.578125,702.58
2019-08-13 14:17:23.593750,723.67
2019-08-13 14:17:23.609375,730.04
2019-08-13 14:17:23.625000,718.31
2019-08-13 14:17:23.640625,686.41
2019-08-13 14:17:23.656250,633.84
2019-08-13 14:17:23.671875,558.35
2019-08-13 14:17:23.687500,461.3
2019-08-13 14:17:23.703125,346.61
2019-08-13 14:17:23.718750,220.02
2019-08-13 14:17:23.734375,88.33
2019-08-13 14:17:23.750000,-41.77
2019-08-13 14:17:23.765625,-164.27
2019-08-13 14:17:23.781250,-274.38
2019-08-13 14:17:23.796875,-367.19
2019-08-13 14:17:23.812500,-440.83
2019-08-13 14:17:23.828125,-494.6
2019-08-13 14:17:23.843750,-528.99
2019-08-13 14:17:23.859375,-545.35
2019-08-13 14:17:23.875000,-545.66
2019-08-13 14:17:23.890625,-532.44
2019-08-13 14:17:23.906250,-508.42
2019-08-13 14:17:23.921875,-476.57
2019-08-13 14:17:23.937500,-439.65
2019-08-13 14:17:23.953125,-400.23
2019-08-13 14:17:23.968750,-359.8
2019-08-13 14:17:23.984375,-319.65
2019-08-13 14:17:24.000000,-280.96
2019-08-13 14:17:24.015625,-245.03
2019-08-13 14:17:24.031250,-213.24
2019-08-13 14:17:24.046875,-186.85
2019-08-13 14:17:24.062500,-166.84
2019-08-13 14:17:24.078125,-153.57
2019-08-13 14:17:24.093750,-146.78
2019-08-13 14:17:24.109375,-145.11
2019-08-13 14:17:24.125000,-146.83
2019-08-13 14:17:24.140625,-150.28
2019-08-13 14:17:24.156250,-154.26
2019-08-13 14:17:24.171875,-158.1
2019-08-13 14:17:24.187500,-161.53
2019-08-13 14:17:24.203125,-164.32
2019-08-13 14:17:24.218750,-165.89
2019-08-13 14:17:24.234375,-165.23
2019-08-13 14:17:24.250000,-160.69
2019-08-13 14:17:24.265625,-150.64
2019-08-13 14:17:24.281250,-134.11
2019-08-13 14:17:24.296875,-111.16
2019-08-13 14:17:24.312500,-82.92
2019-08-13 14:17:24.328125,-51.13
2019-08-13 14:17:24.343750,-17.56
2019-08-13 14:17:24.359375,16.58
2019-08-13 14:17:24.375000,50.83
2019-08-13 14:17:24.390625,85.45
2019-08-13 14:17:24.406250,120.89
2019-08-13 14:17:24.421875,157.43
2019-08-13 14:17:24.437500,195.15
2019-08-13 14:17:24.453125,233.85
2019-08-13 14:17:24.468750,272.95
2019-08-13 14:17:24.484375,311.0
2019-08-13 14:17:24.500000,345.36
2019-08-13 14:17:24.515625,372.24
2019-08-13 14:17:24.531250,387.63
2019-08-13 14:17:24.546875,388.63
2019-08-13 14:17:24.562500,374.8
2019-08-13 14:17:24.578125,348.51
2019-08-13 14:17:24.593750,314.27
2019-08-13 14:17:24.609375,277.15
2019-08-13 14:17:24.625000,240.97
2019-08-13 14:17:24.640625,207.43
2019-08-13 14:17:24.656250,176.41
2019-08-13 14:17:24.671875,147.23
2019-08-13 14:17:24.687500,120.02
2019-08-13 14:17:24.703125,96.38
2019-08-13 14:17:24.718750,78.79
2019-08-13 14:17:24.734375,69.21
2019-08-13 14:17:24.750000,67.79
2019-08-13 14:17:24.765625,72.4
2019-08-13 14:17:24.781250,79.49
2019-08-13 14:17:24.796875,85.71
2019-08-13 14:17:24.812500,89.27
2019-08-13 14:17:24.828125,90.47
2019-08-13 14:17:24.843750,90.82
2019-08-13 14:17:24.859375,91.44
2019-08-13 14:17:24.875000,91.85
2019-08-13 14:17:24.890625,89.88
2019-08-13 14:17:24.906250,83.0
2019-08-13 14:17:24.921875,70.06
2019-08-13 14:17:24.937500,52.45
2019-08-13 14:17:24.953125,33.68
2019-08-13 14:17:24.968750,17.7
2019-08-13 14:17:24.984375,6.69
2019-08-13 14:17:25.000000,-0.2
2019-08-13 14:17:25.015625,-6.43
2019-08-13 14:17:25.031250,-16.11
2019-08-13 14:17:25.046875,-31.64
2019-08-13 14:17:25.062500,-52.06
2019-08-13 14:17:25.078125,-73.35
2019-08-13 14:17:25.093750,-90.09
2019-08-13 14:17:25.109375,-97.95
2019-08-13 14:17:25.125000,-95.49
2019-08-13 14:17:25.140625,-84.63
2019-08-13 14:17:25.156250,-69.73
2019-08-13 14:17:25.171875,-55.99
2019-08-13 14:17:25.187500,-47.85
2019-08-13 14:17:25.203125,-48.03
2019-08-13 14:17:25.218750,-57.18
2019-08-13 14:17:25.234375,-73.97
2019-08-13 14:17:25.250000,-95.58
2019-08-13 14:17:25.265625,-118.3
2019-08-13 14:17:25.281250,-138.47
2019-08-13 14:17:25.296875,-153.23
2019-08-13 14:17:25.312500,-161.14
2019-08-13 14:17:25.328125,-162.25
2019-08-13 14:17:25.343750,-157.68
2019-08-13 14:17:25.359375,-148.99
2019-08-13 14:17:25.375000,-137.78
2019-08-13 14:17:25.390625,-125.54
2019-08-13 14:17:25.406250,-113.76
2019-08-13 14:17:25.421875,-103.97
2019-08-13 14:17:25.437500,-97.54
2019-08-13 14:17:25.453125,-95.13
2019-08-13 14:17:25.468750,-96.3
2019-08-13 14:17:25.484375,-99.48
2019-08-13 14:17:25.500000,-102.33
2019-08-13 14:17:25.515625,-102.62
2019-08-13 14:17:25.531250,-99.02
2019-08-13 14:17:25.546875,-91.56
2019-08-13 14:17:25.562500,-81.49
2019-08-13 14:17:25.578125,-70.67
2019-08-13 14:17:25.593750,-60.67
2019-08-13 14:17:25.609375,-52.11
2019-08-13 14:17:25.625000,-44.39
2019-08-13 14:17:25.640625,-36.08
2019-08-13 14:17:25.656250,-25.42
2019-08-13 14:17:25.671875,-10.9
2019-08-13 14:17:25.687500,8.37
2019-08-13 14:17:25.703125,32.48
2019-08-13 14:17:25.718750,60.35
2019-08-13 14:17:25.734375,89.66
2019-08-13 14:17:25.750000,116.81
2019-08-13 14:17:25.765625,137.6
2019-08-13 14:17:25.781250,148.45
2019-08-13 14:17:25.796875,147.73
2019-08-13 14:17:25.812500,136.69
2019-08-13 14:17:25.828125,119.27
2019-08-13 14:17:25.843750,100.85
2019-08-13 14:17:25.859375,86.23
2019-08-13 14:17:25.875000,78.01
2019-08-13 14:17:25.890625,75.86
2019-08-13 14:17:25.906250,77.2
2019-08-13 14:17:25.921875,78.64
2019-08-13 14:17:25.937500,77.47
2019-08-13 14:17:25.953125,72.61
2019-08-13 14:17:25.968750,64.62
2019-08-13 14:17:25.984375,54.98
2019-08-13 14:17:26.000000,45.23
2019-08-13 14:17:26.015625,36.27
2019-08-13 14:17:26.031250,28.26
2019-08-13 14:17:26.046875,20.92
2019-08-13 14:17:26.062500,14.14
2019-08-13 14:17:26.078125,8.43
2019-08-13 14:17:26.093750,4.78
2019-08-13 14:17:26.109375,4.1
2019-08-13 14:17:26.125000,6.38
2019-08-13 14:17:26.140625,10.4
2019-08-13 14:17:26.156250,13.98
2019-08-13 14:17:26.171875,15.05
2019-08-13 14:17:26.187500,12.74
2019-08-13 14:17:26.203125,8.06
2019-08-13 14:17:26.218750,3.35
2019-08-13 14:17:26.234375,1.1
2019-08-13 14:17:26.250000,2.41
2019-08-13 14:17:26.265625,6.36
2019-08-13 14:17:26.281250,10.38
2019-08-13 14:17:26.296875,11.81
2019-08-13 14:17:26.312500,9.39
2019-08-13 14:17:26.328125,4.02
2019-08-13 14:17:26.343750,-1.78
2019-08-13 14:17:26.359375,-5.34
2019-08-13 14:17:26.375000,-5.5
2019-08-13 14:17:26.390625,-3.18
2019-08-13 14:17:26.406250,-0.79
2019-08-13 14:17:26.421875,-0.75
2019-08-13 14:17:26.437500,-4.01
2019-08-13 14:17:26.453125,-9.48
2019-08-13 14:17:26.468750,-14.73
2019-08-13 14:17:26.484375,-17.43
2019-08-13 14:17:26.500000,-16.77
2019-08-13 14:17:26.515625,-13.85
2019-08-13 14:17:26.531250,-11.02
2019-08-13 14:17:26.546875,-10.44
2019-08-13 14:17:26.562500,-12.67
2019-08-13 14:17:26.578125,-16.31
2019-08-13 14:17:26.593750,-18.62
2019-08-13 14:17:26.609375,-17.01
2019-08-13 14:17:26.625000,-10.36
2019-08-13 14:17:26.640625,0.42
2019-08-13 14:17:26.656250,12.83
2019-08-13 14:17:26.671875,23.95
2019-08-13 14:17:26.687500,31.65
2019-08-13 14:17:26.703125,35.21
2019-08-13 14:17:26.718750,35.11
2019-08-13 14:17:26.734375,32.35
2019-08-13 14:17:26.750000,27.68
2019-08-13 14:17:26.765625,21.4
2019-08-13 14:17:26.781250,13.51
2019-08-13 14:17:26.796875,4.33
2019-08-13 14:17:26.812500,-5.08
2019-08-13 14:17:26.828125,-13.06
2019-08-13 14:17:26.843750,-17.87
2019-08-13 14:17:26.859375,-18.55
2019-08-13 14:17:26.875000,-15.45
2019-08-13 14:17:26.890625,-10.24
2019-08-13 14:17:26.906250,-5.25
2019-08-13 14:17:26.921875,-2.4
2019-08-13 14:17:26.937500,-2.37
2019-08-13 14:17:26.953125,-4.29
2019-08-13 14:17:26.968750,-6.42
2019-08-13 14:17:26.984375,-7.22
2019-08-13 14:17:27.000000,-6.51
2019-08-13 14:17:27.015625,-5.74
2019-08-13 14:17:27.031250,-7.34
2019-08-13 14:17:27.046875,-13.22
2019-08-13 14:17:27.062500,-23.45
2019-08-13 14:17:27.078125,-35.75
2019-08-13 14:17:27.093750,-46.35
2019-08-13 14:17:27.109375,-51.66
2019-08-13 14:17:27.125000,-49.9
2019-08-13 14:17:27.140625,-41.88
2019-08-13 14:17:27.156250,-30.4
2019-08-13 14:17:27.171875,-18.91
2019-08-13 14:17:27.187500,-9.91
2019-08-13 14:17:27.203125,-4.15
2019-08-13 14:17:27.218750,-0.83
2019-08-13 14:17:27.234375,1.44
2019-08-13 14:17:27.250000,3.39
2019-08-13 14:17:27.265625,4.58
2019-08-13 14:17:27.281250,3.59
2019-08-13 14:17:27.296875,-1.0
2019-08-13 14:17:27.312500,-9.52
2019-08-13 14:17:27.328125,-20.66
2019-08-13 14:17:27.343750,-31.8
2019-08-13 14:17:27.359375,-40.18
2019-08-13 14:17:27.375000,-44.14
2019-08-13 14:17:27.390625,-43.99
2019-08-13 14:17:27.406250,-41.77
2019-08-13 14:17:27.421875,-40.08
2019-08-13 14:17:27.437500,-40.66
2019-08-13 14:17:27.453125,-43.5
2019-08-13 14:17:27.468750,-47.0
2019-08-13 14:17:27.484375,-49.03
2019-08-13 14:17:27.500000,-48.19
2019-08-13 14:17:27.515625,-44.55
2019-08-13 14:17:27.531250,-39.27
2019-08-13 14:17:27.546875,-33.46
2019-08-13 14:17:27.562500,-27.01
2019-08-13 14:17:27.578125,-18.2
2019-08-13 14:17:27.593750,-4.54
2019-08-13 14:17:27.609375,15.75
2019-08-13 14:17:27.625000,42.54
2019-08-13 14:17:27.640625,73.55
2019-08-13 14:17:27.656250,105.5
2019-08-13 14:17:27.671875,135.89
2019-08-13 14:17:27.687500,164.48
2019-08-13 14:17:27.703125,193.15
2019-08-13 14:17:27.718750,225.38
2019-08-13 14:17:27.734375,264.35
2019-08-13 14:17:27.750000,311.32
2019-08-13 14:17:27.765625,364.87
2019-08-13 14:17:27.781250,421.18
2019-08-13 14:17:27.796875,475.24
2019-08-13 14:17:27.812500,522.04
2019-08-13 14:17:27.828125,557.51
2019-08-13 14:17:27.843750,578.87
2019-08-13 14:17:27.859375,584.55
2019-08-13 14:17:27.875000,573.9
2019-08-13 14:17:27.890625,546.88
2019-08-13 14:17:27.906250,503.92
2019-08-13 14:17:27.921875,445.94
2019-08-13 14:17:27.937500,374.57
2019-08-13 14:17:27.953125,292.33
2019-08-13 14:17:27.968750,202.74
2019-08-13 14:17:27.984375,110.17
2019-08-13 14:17:28.000000,19.37
2019-08-13 14:17:28.015625,-65.43
2019-08-13 14:17:28.031250,-141.13
2019-08-13 14:17:28.046875,-206.29
2019-08-13 14:17:28.062500,-261.04
2019-08-13 14:17:28.078125,-306.45
2019-08-13 14:17:28.093750,-344.05
2019-08-13 14:17:28.109375,-375.53
2019-08-13 14:17:28.125000,-402.67
2019-08-13 14:17:28.140625,-426.95
2019-08-13 14:17:28.156250,-448.56
2019-08-13 14:17:28.171875,-465.29
2019-08-13 14:17:28.187500,-472.19
2019-08-13 14:17:28.203125,-462.92
2019-08-13 14:17:28.218750,-432.43
2019-08-13 14:17:28.234375,-380.11
2019-08-13 14:17:28.250000,-311.33
2019-08-13 14:17:28.265625,-236.25
2019-08-13 14:17:28.281250,-166.3
2019-08-13 14:17:28.296875,-110.04
2019-08-13 14:17:28.312500,-70.6
2019-08-13 14:17:28.328125,-45.94
2019-08-13 14:17:28.343750,-31.34
2019-08-13 14:17:28.359375,-22.22
2019-08-13 14:17:28.375000,-16.08
2019-08-13 14:17:28.390625,-12.42
2019-08-13 14:17:28.406250,-11.38
2019-08-13 14:17:28.421875,-12.46
2019-08-13 14:17:28.437500,-14.13
2019-08-13 14:17:28.453125,-14.52
2019-08-13 14:17:28.468750,-12.43
2019-08-13 14:17:28.484375,-8.02
2019-08-13 14:17:28.500000,-2.41
2019-08-13 14:17:28.515625,2.67
2019-08-13 14:17:28.531250,5.88
2019-08-13 14:17:28.546875,6.73
2019-08-13 14:17:28.562500,5.8
2019-08-13 14:17:28.578125,4.26
2019-08-13 14:17:28.593750,3.38
2019-08-13 14:17:28.609375,4.72
2019-08-13 14:17:28.625000,7.91
2019-08-13 14:17:28.640625,12.03
2019-08-13 14:17:28.656250,16.12
2019-08-13 14:17:28.671875,19.78
2019-08-13 14:17:28.687500,23.29
2019-08-13 14:17:28.703125,27.1
2019-08-13 14:17:28.718750,31.02
2019-08-13 14:17:28.734375,33.58
2019-08-13 14:17:28.750000,32.28
2019-08-13 14:17:28.765625,24.49
2019-08-13 14:17:28.781250,9.14
2019-08-13 14:17:28.796875,-12.48
2019-08-13 14:17:28.812500,-36.93
2019-08-13 14:17:28.828125,-59.81
2019-08-13 14:17:28.843750,-77.48
2019-08-13 14:17:28.859375,-88.22
2019-08-13 14:17:28.875000,-92.5
2019-08-13 14:17:28.890625,-92.12
2019-08-13 14:17:28.906250,-89.24
2019-08-13 14:17:28.921875,-85.29
2019-08-13 14:17:28.937500,-80.92
2019-08-13 14:17:28.953125,-76.36
2019-08-13 14:17:28.968750,-71.85
2019-08-13 14:17:28.984375,-67.81
2019-08-13 14:17:29.000000,-64.63
2019-08-13 14:17:29.015625,-62.36
2019-08-13 14:17:29.031250,-60.57
2019-08-13 14:17:29.046875,-58.58
2019-08-13 14:17:29.062500,-55.57
2019-08-13 14:17:29.078125,-51.15
2019-08-13 14:17:29.093750,-45.51
2019-08-13 14:17:29.109375,-39.38
2019-08-13 14:17:29.125000,-33.67
2019-08-13 14:17:29.140625,-29.04
2019-08-13 14:17:29.156250,-25.68
2019-08-13 14:17:29.171875,-23.23
2019-08-13 14:17:29.187500,-21.05
2019-08-13 14:17:29.203125,-18.53
2019-08-13 14:17:29.218750,-15.35
2019-08-13 14:17:29.234375,-11.63
2019-08-13 14:17:29.250000,-7.77
2019-08-13 14:17:29.265625,-4.25
2019-08-13 14:17:29.281250,-1.39
2019-08-13 14:17:29.296875,0.73
2019-08-13 14:17:29.312500,2.21
2019-08-13 14:17:29.328125,3.19
2019-08-13 14:17:29.343750,3.83
2019-08-13 14:17:29.359375,4.16
2019-08-13 14:17:29.375000,4.12
2019-08-13 14:17:29.390625,3.7
2019-08-13 14:17:29.406250,2.93
2019-08-13 14:17:29.421875,1.97
2019-08-13 14:17:29.437500,1.06
2019-08-13 14:17:29.453125,0.48
2019-08-13 14:17:29.468750,0.4
2019-08-13 14:17:29.484375,0.84
2019-08-13 14:17:29.500000,1.67
2019-08-13 14:17:29.515625,2.6
2019-08-13 14:17:29.531250,3.34
2019-08-13 14:17:29.546875,3.68
2019-08-13 14:17:29.562500,3.49
2019-08-13 14:17:29.578125,2.76
2019-08-13 14:17:29.593750,1.53
2019-08-13 14:17:29.609375,-0.13
2019-08-13 14:17:29.625000,-2.09
2019-08-13 14:17:29.640625,-4.19
2019-08-13 14:17:29.656250,-6.19
2019-08-13 14:17:29.671875,-7.88
2019-08-13 14:17:29.687500,-9.2
2019-08-13 14:17:29.703125,-10.21
2019-08-13 14:17:29.718750,-11.08
2019-08-13 14:17:29.734375,-11.86
2019-08-13 14:17:29.750000,-12.45
2019-08-13 14:17:29.765625,-12.53
2019-08-13 14:17:29.781250,-11.75
2019-08-13 14:17:29.796875,-9.95
2019-08-13 14:17:29.812500,-7.3
2019-08-13 14:17:29.828125,-4.25
2019-08-13 14:17:29.843750,-1.36
2019-08-13 14:17:29.859375,0.97
2019-08-13 14:17:29.875000,2.55
2019-08-13 14:17:29.890625,3.47
2019-08-13 14:17:29.906250,3.91
2019-08-13 14:17:29.921875,4.01
2019-08-13 14:17:29.937500,3.84
2019-08-13 14:17:29.953125,3.44
2019-08-13 14:17:29.968750,2.92
2019-08-13 14:17:29.984375,2.43
2019-08-13 14:17:30.000000,2.13
2019-08-13 14:17:30.015625,2.1
2019-08-13 14:17:30.031250,2.28
2019-08-13 14:17:30.046875,2.53
2019-08-13 14:17:30.062500,2.68
2019-08-13 14:17:30.078125,2.62
2019-08-13 14:17:30.093750,2.34
2019-08-13 14:17:30.109375,1.88
2019-08-13 14:17:30.125000,1.31
2019-08-13 14:17:30.140625,0.62
2019-08-13 14:17:30.156250,-0.2
2019-08-13 14:17:30.171875,-1.2
2019-08-13 14:17:30.187500,-2.36
2019-08-13 14:17:30.203125,-3.62
2019-08-13 14:17:30.218750,-4.85
2019-08-13 14:17:30.234375,-5.96
2019-08-13 14:17:30.250000,-6.86
2019-08-13 14:17:30.265625,-7.52
2019-08-13 14:17:30.281250,-7.94
2019-08-13 14:17:30.296875,-8.17
2019-08-13 14:17:30.312500,-8.27
2019-08-13 14:17:30.328125,-8.3
2019-08-13 14:17:30.343750,-8.31
2019-08-13 14:17:30.359375,-8.33
2019-08-13 14:17:30.375000,-8.31
2019-08-13 14:17:30.390625,-8.21
2019-08-13 14:17:30.406250,-7.96
2019-08-13 14:17:30.421875,-7.48
2019-08-13 14:17:30.437500,-6.66
2019-08-13 14:17:30.453125,-5.44
2019-08-13 14:17:30.468750,-3.8
2019-08-13 14:17:30.484375,-1.82
2019-08-13 14:17:30.500000,0.28
2019-08-13 14:17:30.515625,2.19
2019-08-13 14:17:30.531250,3.66
2019-08-13 14:17:30.546875,4.48
2019-08-13 14:17:30.562500,4.64
2019-08-13 14:17:30.578125,4.28
2019-08-13 14:17:30.593750,3.6
2019-08-13 14:17:30.609375,2.85
2019-08-13 14:17:30.625000,2.24
2019-08-13 14:17:30.640625,1.91
2019-08-13 14:17:30.656250,1.92
2019-08-13 14:17:30.671875,2.21
2019-08-13 14:17:30.687500,2.61
2019-08-13 14:17:30.703125,2.92
2019-08-13 14:17:30.718750,3.07
2019-08-13 14:17:30.734375,3.14
2019-08-13 14:17:30.750000,3.36
2019-08-13 14:17:30.765625,3.99
2019-08-13 14:17:30.781250,5.14
2019-08-13 14:17:30.796875,6.68
2019-08-13 14:17:30.812500,8.29
2019-08-13 14:17:30.828125,9.65
2019-08-13 14:17:30.843750,10.55
2019-08-13 14:17:30.859375,10.98
2019-08-13 14:17:30.875000,11.09
2019-08-13 14:17:30.890625,11.07
2019-08-13 14:17:30.906250,11.06
2019-08-13 14:17:30.921875,11.12
2019-08-13 14:17:30.937500,11.29
2019-08-13 14:17:30.953125,11.57
2019-08-13 14:17:30.968750,11.95
2019-08-13 14:17:30.984375,12.34
2019-08-13 14:17:31.000000,12.62
2019-08-13 14:17:31.015625,12.65
2019-08-13 14:17:31.031250,12.37
2019-08-13 14:17:31.046875,11.86
2019-08-13 14:17:31.062500,11.31
2019-08-13 14:17:31.078125,10.95
2019-08-13 14:17:31.093750,10.97
2019-08-13 14:17:31.109375,11.45
2019-08-13 14:17:31.125000,12.24
2019-08-13 14:17:31.140625,13.09
2019-08-13 14:17:31.156250,13.64
2019-08-13 14:17:31.171875,13.54
2019-08-13 14:17:31.187500,12.59
2019-08-13 14:17:31.203125,10.82
2019-08-13 14:17:31.218750,8.42
2019-08-13 14:17:31.234375,5.67
2019-08-13 14:17:31.250000,2.81
2019-08-13 14:17:31.265625,-0.11
2019-08-13 14:17:31.281250,-3.19
2019-08-13 14:17:31.296875,-6.52
2019-08-13 14:17:31.312500,-10.04
2019-08-13 14:17:31.328125,-13.44
2019-08-13 14:17:31.343750,-16.24
2019-08-13 14:17:31.359375,-17.97
2019-08-13 14:17:31.375000,-18.4
2019-08-13 14:17:31.390625,-17.59
2019-08-13 14:17:31.406250,-15.89
2019-08-13 14:17:31.421875,-13.75
2019-08-13 14:17:31.437500,-11.53
2019-08-13 14:17:31.453125,-9.46
2019-08-13 14:17:31.468750,-7.64
2019-08-13 14:17:31.484375,-6.07
2019-08-13 14:17:31.500000,-4.73
2019-08-13 14:17:31.515625,-3.62
2019-08-13 14:17:31.531250,-2.67
2019-08-13 14:17:31.546875,-1.77
2019-08-13 14:17:31.562500,-0.8
2019-08-13 14:17:31.578125,0.33
2019-08-13 14:17:31.593750,1.61
2019-08-13 14:17:31.609375,2.94
2019-08-13 14:17:31.625000,4.17
2019-08-13 14:17:31.640625,5.14
2019-08-13 14:17:31.656250,5.77
2019-08-13 14:17:31.671875,6.11
2019-08-13 14:17:31.687500,6.25
2019-08-13 14:17:31.703125,6.31
2019-08-13 14:17:31.718750,6.33
2019-08-13 14:17:31.734375,6.27
2019-08-13 14:17:31.750000,6.01
2019-08-13 14:17:31.765625,5.41
2019-08-13 14:17:31.781250,4.42
2019-08-13 14:17:31.796875,3.08
2019-08-13 14:17:31.812500,1.55
2019-08-13 14:17:31.828125,0.03
2019-08-13 14:17:31.843750,-1.32
2019-08-13 14:17:31.859375,-2.45
2019-08-13 14:17:31.875000,-3.41
2019-08-13 14:17:31.890625,-4.32
2019-08-13 14:17:31.906250,-5.29
2019-08-13 14:17:31.921875,-6.35
2019-08-13 14:17:31.937500,-7.45
2019-08-13 14:17:31.953125,-8.52
2019-08-13 14:17:31.968750,-9.46
2019-08-13 14:17:31.984375,-10.24
2019-08-13 14:17:32.000000,-10.83
2019-08-13 14:17:32.015625,-11.22
2019-08-13 14:17:32.031250,-11.39
2019-08-13 14:17:32.046875,-11.31
2019-08-13 14:17:32.062500,-10.98
2019-08-13 14:17:32.078125,-10.39
2019-08-13 14:17:32.093750,-9.59
2019-08-13 14:17:32.109375,-8.6
2019-08-13 14:17:32.125000,-7.48
2019-08-13 14:17:32.140625,-6.24
2019-08-13 14:17:32.156250,-4.9
2019-08-13 14:17:32.171875,-3.55
2019-08-13 14:17:32.187500,-2.29
2019-08-13 14:17:32.203125,-1.27
2019-08-13 14:17:32.218750,-0.54
2019-08-13 14:17:32.234375,-0.03
2019-08-13 14:17:32.250000,0.49
2019-08-13 14:17:32.265625,1.26
2019-08-13 14:17:32.281250,2.44
2019-08-13 14:17:32.296875,4.02
2019-08-13 14:17:32.312500,5.82
2019-08-13 14:17:32.328125,7.55
2019-08-13 14:17:32.343750,8.96
2019-08-13 14:17:32.359375,9.97
2019-08-13 14:17:32.375000,10.75
2019-08-13 14:17:32.390625,11.59
2019-08-13 14:17:32.406250,12.84
2019-08-13 14:17:32.421875,14.71
2019-08-13 14:17:32.437500,17.14
2019-08-13 14:17:32.453125,19.8
2019-08-13 14:17:32.468750,22.07
2019-08-13 14:17:32.484375,23.32
2019-08-13 14:17:32.500000,23.09
2019-08-13 14:17:32.515625,21.37
2019-08-13 14:17:32.531250,18.53
2019-08-13 14:17:32.546875,15.08
2019-08-13 14:17:32.562500,11.37
2019-08-13 14:17:32.578125,7.38
2019-08-13 14:17:32.593750,2.83
2019-08-13 14:17:32.609375,-2.56
2019-08-13 14:17:32.625000,-8.64
2019-08-13 14:17:32.640625,-15.0
2019-08-13 14:17:32.656250,-20.68
2019-08-13 14:17:32.671875,-24.63
2019-08-13 14:17:32.687500,-26.21
2019-08-13 14:17:32.703125,-25.41
2019-08-13 14:17:32.718750,-22.83
2019-08-13 14:17:32.734375,-19.28
2019-08-13 14:17:32.750000,-15.36
2019-08-13 14:17:32.765625,-11.4
2019-08-13 14:17:32.781250,-7.64
2019-08-13 14:17:32.796875,-4.61
2019-08-13 14:17:32.812500,-3.18
2019-08-13 14:17:32.828125,-4.31
2019-08-13 14:17:32.843750,-8.26
2019-08-13 14:17:32.859375,-14.31
2019-08-13 14:17:32.875000,-20.56
2019-08-13 14:17:32.890625,-24.53
2019-08-13 14:17:32.906250,-24.08
2019-08-13 14:17:32.921875,-18.31
2019-08-13 14:17:32.937500,-7.83
2019-08-13 14:17:32.953125,5.65
2019-08-13 14:17:32.968750,19.92
2019-08-13 14:17:32.984375,32.82
2019-08-13 14:17:33.000000,42.49
2019-08-13 14:17:33.015625,47.6
2019-08-13 14:17:33.031250,47.63
2019-08-13 14:17:33.046875,43.11
2019-08-13 14:17:33.062500,35.7
2019-08-13 14:17:33.078125,28.22
2019-08-13 14:17:33.093750,24.1
2019-08-13 14:17:33.109375,26.04
2019-08-13 14:17:33.125000,34.48
2019-08-13 14:17:33.140625,46.48
2019-08-13 14:17:33.156250,55.83
2019-08-13 14:17:33.171875,54.47
2019-08-13 14:17:33.187500,35.31
2019-08-13 14:17:33.203125,-4.63
2019-08-13 14:17:33.218750,-61.83
2019-08-13 14:17:33.234375,-125.73
2019-08-13 14:17:33.250000,-181.36
2019-08-13 14:17:33.265625,-214.34
2019-08-13 14:17:33.281250,-216.04
2019-08-13 14:17:33.296875,-186.41
2019-08-13 14:17:33.312500,-133.5
2019-08-13 14:17:33.328125,-70.18
2019-08-13 14:17:33.343750,-8.87
2019-08-13 14:17:33.359375,40.13
2019-08-13 14:17:33.375000,71.21
2019-08-13 14:17:33.390625,83.76
2019-08-13 14:17:33.406250,81.48
2019-08-13 14:17:33.421875,69.17
2019-08-13 14:17:33.437500,51.09
2019-08-13 14:17:33.453125,30.81
2019-08-13 14:17:33.468750,11.45
2019-08-13 14:17:33.484375,-4.07
2019-08-13 14:17:33.500000,-13.91
2019-08-13 14:17:33.515625,-17.6
2019-08-13 14:17:33.531250,-16.17
2019-08-13 14:17:33.546875,-11.71
2019-08-13 14:17:33.562500,-6.86
2019-08-13 14:17:33.578125,-3.65
2019-08-13 14:17:33.593750,-2.87
2019-08-13 14:17:33.609375,-4.01
2019-08-13 14:17:33.625000,-5.64
2019-08-13 14:17:33.640625,-6.15
2019-08-13 14:17:33.656250,-4.2
2019-08-13 14:17:33.671875,0.66
2019-08-13 14:17:33.687500,7.77
2019-08-13 14:17:33.703125,15.43
2019-08-13 14:17:33.718750,21.77
2019-08-13 14:17:33.734375,25.51
2019-08-13 14:17:33.750000,26.38
2019-08-13 14:17:33.765625,25.2
2019-08-13 14:17:33.781250,23.29
2019-08-13 14:17:33.796875,22.01
2019-08-13 14:17:33.812500,22.23
2019-08-13 14:17:33.828125,24.0
2019-08-13 14:17:33.843750,26.62
2019-08-13 14:17:33.859375,29.13
2019-08-13 14:17:33.875000,30.8
2019-08-13 14:17:33.890625,31.41
2019-08-13 14:17:33.906250,31.25
2019-08-13 14:17:33.921875,30.81
2019-08-13 14:17:33.937500,30.6
2019-08-13 14:17:33.953125,30.94
2019-08-13 14:17:33.968750,31.82
2019-08-13 14:17:33.984375,32.93
2019-08-13 14:17:34.000000,33.8
2019-08-13 14:17:34.015625,33.97
2019-08-13 14:17:34.031250,33.09
2019-08-13 14:17:34.046875,31.03
2019-08-13 14:17:34.062500,27.85
2019-08-13 14:17:34.078125,23.81
2019-08-13 14:17:34.093750,19.29
2019-08-13 14:17:34.109375,14.6
2019-08-13 14:17:34.125000,9.94
2019-08-13 14:17:34.140625,5.38
2019-08-13 14:17:34.156250,0.95
2019-08-13 14:17:34.171875,-3.32
2019-08-13 14:17:34.187500,-7.33
2019-08-13 14:17:34.203125,-10.96
2019-08-13 14:17:34.218750,-14.09
2019-08-13 14:17:34.234375,-16.62
2019-08-13 14:17:34.250000,-18.48
2019-08-13 14:17:34.265625,-19.65
2019-08-13 14:17:34.281250,-20.11
2019-08-13 14:17:34.296875,-19.95
2019-08-13 14:17:34.312500,-19.3
2019-08-13 14:17:34.328125,-18.4
2019-08-13 14:17:34.343750,-17.53
2019-08-13 14:17:34.359375,-16.95
2019-08-13 14:17:34.375000,-16.81
2019-08-13 14:17:34.390625,-17.17
2019-08-13 14:17:34.406250,-17.96
2019-08-13 14:17:34.421875,-19.05
2019-08-13 14:17:34.437500,-20.31
2019-08-13 14:17:34.453125,-21.57
2019-08-13 14:17:34.468750,-22.68
2019-08-13 14:17:34.484375,-23.51
2019-08-13 14:17:34.500000,-23.96
2019-08-13 14:17:34.515625,-24.03
2019-08-13 14:17:34.531250,-23.92
2019-08-13 14:17:34.546875,-23.97
2019-08-13 14:17:34.562500,-24.62
2019-08-13 14:17:34.578125,-26.17
2019-08-13 14:17:34.593750,-28.65
2019-08-13 14:17:34.609375,-31.66
2019-08-13 14:17:34.625000,-34.54
2019-08-13 14:17:34.640625,-36.46
2019-08-13 14:17:34.656250,-36.76
2019-08-13 14:17:34.671875,-35.12
2019-08-13 14:17:34.687500,-31.64
2019-08-13 14:17:34.703125,-26.76
2019-08-13 14:17:34.718750,-21.18
2019-08-13 14:17:34.734375,-15.65
2019-08-13 14:17:34.750000,-10.78
2019-08-13 14:17:34.765625,-6.99
2019-08-13 14:17:34.781250,-4.38
2019-08-13 14:17:34.796875,-2.84
2019-08-13 14:17:34.812500,-2.15
2019-08-13 14:17:34.828125,-2.11
2019-08-13 14:17:34.843750,-2.64
2019-08-13 14:17:34.859375,-3.7
2019-08-13 14:17:34.875000,-5.26
2019-08-13 14:17:34.890625,-7.16
2019-08-13 14:17:34.906250,-9.13
2019-08-13 14:17:34.921875,-10.77
2019-08-13 14:17:34.937500,-11.74
2019-08-13 14:17:34.953125,-11.86
2019-08-13 14:17:34.968750,-11.18
2019-08-13 14:17:34.984375,-9.88
2019-08-13 14:17:35.000000,-8.11
2019-08-13 14:17:35.015625,-5.96
2019-08-13 14:17:35.031250,-3.36
2019-08-13 14:17:35.046875,-0.15
2019-08-13 14:17:35.062500,3.78
2019-08-13 14:17:35.078125,8.36
2019-08-13 14:17:35.093750,13.32
2019-08-13 14:17:35.109375,18.12
2019-08-13 14:17:35.125000,22.31
2019-08-13 14:17:35.140625,25.67
2019-08-13 14:17:35.156250,28.3
2019-08-13 14:17:35.171875,30.54
2019-08-13 14:17:35.187500,32.77
2019-08-13 14:17:35.203125,35.3
2019-08-13 14:17:35.218750,38.16
2019-08-13 14:17:35.234375,41.13
2019-08-13 14:17:35.250000,43.77
2019-08-13 14:17:35.265625,45.69
2019-08-13 14:17:35.281250,46.74
2019-08-13 14:17:35.296875,47.05
2019-08-13 14:17:35.312500,46.9
2019-08-13 14:17:35.328125,46.67
2019-08-13 14:17:35.343750,46.8
2019-08-13 14:17:35.359375,47.58
2019-08-13 14:17:35.375000,49.03
2019-08-13 14:17:35.390625,50.73
2019-08-13 14:17:35.406250,52.14
2019-08-13 14:17:35.421875,52.71
2019-08-13 14:17:35.437500,52.1
2019-08-13 14:17:35.453125,50.25
2019-08-13 14:17:35.468750,46.75
2019-08-13 14:17:35.484375,41.62
2019-08-13 14:17:35.500000,35.06
2019-08-13 14:17:35.515625,28.2
2019-08-13 14:17:35.531250,21.28
2019-08-13 14:17:35.546875,14.06
2019-08-13 14:17:35.562500,5.85
2019-08-13 14:17:35.578125,-3.59
2019-08-13 14:17:35.593750,-13.97
2019-08-13 14:17:35.609375,-24.53
2019-08-13 14:17:35.625000,-34.2
2019-08-13 14:17:35.640625,-42.01
2019-08-13 14:17:35.656250,-47.38
2019-08-13 14:17:35.671875,-50.28
2019-08-13 14:17:35.687500,-50.95
2019-08-13 14:17:35.703125,-49.67
2019-08-13 14:17:35.718750,-46.67
2019-08-13 14:17:35.734375,-42.15
2019-08-13 14:17:35.750000,-36.35
2019-08-13 14:17:35.765625,-29.45
2019-08-13 14:17:35.781250,-21.72
2019-08-13 14:17:35.796875,-13.55
2019-08-13 14:17:35.812500,-5.48
2019-08-13 14:17:35.828125,1.94
2019-08-13 14:17:35.843750,8.33
2019-08-13 14:17:35.859375,13.46
2019-08-13 14:17:35.875000,17.3
2019-08-13 14:17:35.890625,19.98
2019-08-13 14:17:35.906250,21.9
2019-08-13 14:17:35.921875,23.58
2019-08-13 14:17:35.937500,25.48
2019-08-13 14:17:35.953125,27.84
2019-08-13 14:17:35.968750,30.43
2019-08-13 14:17:35.984375,32.72
2019-08-13 14:17:36.000000,33.99
2019-08-13 14:17:36.015625,33.35
2019-08-13 14:17:36.031250,30.09
2019-08-13 14:17:36.046875,23.99
2019-08-13 14:17:36.062500,15.44
2019-08-13 14:17:36.078125,5.35
2019-08-13 14:17:36.093750,-5.14
2019-08-13 14:17:36.109375,-15.0
2019-08-13 14:17:36.125000,-23.65
2019-08-13 14:17:36.140625,-30.76
2019-08-13 14:17:36.156250,-36.17
2019-08-13 14:17:36.171875,-39.81
2019-08-13 14:17:36.187500,-41.69
2019-08-13 14:17:36.203125,-41.98
2019-08-13 14:17:36.218750,-41.03
2019-08-13 14:17:36.234375,-39.35
2019-08-13 14:17:36.250000,-37.29
2019-08-13 14:17:36.265625,-35.16
2019-08-13 14:17:36.281250,-33.05
2019-08-13 14:17:36.296875,-30.88
2019-08-13 14:17:36.312500,-28.5
2019-08-13 14:17:36.328125,-25.79
2019-08-13 14:17:36.343750,-22.78
2019-08-13 14:17:36.359375,-19.66
2019-08-13 14:17:36.375000,-16.75
2019-08-13 14:17:36.390625,-14.32
2019-08-13 14:17:36.406250,-12.52
2019-08-13 14:17:36.421875,-11.3
2019-08-13 14:17:36.437500,-10.44
2019-08-13 14:17:36.453125,-9.66
2019-08-13 14:17:36.468750,-8.74
2019-08-13 14:17:36.484375,-7.58
2019-08-13 14:17:36.500000,-6.22
2019-08-13 14:17:36.515625,-4.81
2019-08-13 14:17:36.531250,-3.49
2019-08-13 14:17:36.546875,-2.38
2019-08-13 14:17:36.562500,-1.44
2019-08-13 14:17:36.578125,-0.6
2019-08-13 14:17:36.593750,0.24
2019-08-13 14:17:36.609375,1.13
2019-08-13 14:17:36.625000,2.06
2019-08-13 14:17:36.640625,2.97
2019-08-13 14:17:36.656250,3.78
2019-08-13 14:17:36.671875,4.44
2019-08-13 14:17:36.687500,4.91
2019-08-13 14:17:36.703125,5.26
2019-08-13 14:17:36.718750,5.57
2019-08-13 14:17:36.734375,5.93
2019-08-13 14:17:36.750000,6.4
2019-08-13 14:17:36.765625,6.94
2019-08-13 14:17:36.781250,7.43
2019-08-13 14:17:36.796875,7.79
2019-08-13 14:17:36.812500,7.98
2019-08-13 14:17:36.828125,8.02
2019-08-13 14:17:36.843750,8.01
2019-08-13 14:17:36.859375,8.04
2019-08-13 14:17:36.875000,8.13
2019-08-13 14:17:36.890625,8.25
2019-08-13 14:17:36.906250,8.35
2019-08-13 14:17:36.921875,8.37
2019-08-13 14:17:36.937500,8.33
2019-08-13 14:17:36.953125,8.23
2019-08-13 14:17:36.968750,8.03
2019-08-13 14:17:36.984375,7.62
2019-08-13 14:17:37.000000,6.86
2019-08-13 14:17:37.015625,5.69
2019-08-13 14:17:37.031250,4.17
2019-08-13 14:17:37.046875,2.51
2019-08-13 14:17:37.062500,1.07
2019-08-13 14:17:37.078125,0.2
2019-08-13 14:17:37.093750,0.11
2019-08-13 14:17:37.109375,0.81
2019-08-13 14:17:37.125000,2.05
2019-08-13 14:17:37.140625,3.46
2019-08-13 14:17:37.156250,4.68
2019-08-13 14:17:37.171875,5.51
2019-08-13 14:17:37.187500,6.01
2019-08-13 14:17:37.203125,6.35
2019-08-13 14:17:37.218750,6.75
2019-08-13 14:17:37.234375,7.25
2019-08-13 14:17:37.250000,7.66
2019-08-13 14:17:37.265625,7.62
2019-08-13 14:17:37.281250,6.82
2019-08-13 14:17:37.296875,5.16
2019-08-13 14:17:37.312500,2.92
2019-08-13 14:17:37.328125,0.62
2019-08-13 14:17:37.343750,-1.18
2019-08-13 14:17:37.359375,-2.19
2019-08-13 14:17:37.375000,-2.54
2019-08-13 14:17:37.390625,-2.7
2019-08-13 14:17:37.406250,-3.21
2019-08-13 14:17:37.421875,-4.36
2019-08-13 14:17:37.437500,-6.04
2019-08-13 14:17:37.453125,-7.8
2019-08-13 14:17:37.468750,-9.17
2019-08-13 14:17:37.484375,-9.86
2019-08-13 14:17:37.500000,-9.93
2019-08-13 14:17:37.515625,-9.66
2019-08-13 14:17:37.531250,-9.51
2019-08-13 14:17:37.546875,-9.95
2019-08-13 14:17:37.562500,-11.47
2019-08-13 14:17:37.578125,-14.46
2019-08-13 14:17:37.593750,-19.09
2019-08-13 14:17:37.609375,-25.09
2019-08-13 14:17:37.625000,-31.62
2019-08-13 14:17:37.640625,-37.17
2019-08-13 14:17:37.656250,-40.03
2019-08-13 14:17:37.671875,-38.81
2019-08-13 14:17:37.687500,-33.01
2019-08-13 14:17:37.703125,-23.31
2019-08-13 14:17:37.718750,-11.34
2019-08-13 14:17:37.734375,0.88
2019-08-13 14:17:37.750000,11.61
2019-08-13 14:17:37.765625,19.82
2019-08-13 14:17:37.781250,25.3
2019-08-13 14:17:37.796875,28.33
2019-08-13 14:17:37.812500,29.26
2019-08-13 14:17:37.828125,28.37
2019-08-13 14:17:37.843750,25.92
2019-08-13 14:17:37.859375,22.43
2019-08-13 14:17:37.875000,18.81
2019-08-13 14:17:37.890625,16.49
2019-08-13 14:17:37.906250,16.42
2019-08-13 14:17:37.921875,18.85
2019-08-13 14:17:37.937500,23.05
2019-08-13 14:17:37.953125,27.54
2019-08-13 14:17:37.968750,30.72
2019-08-13 14:17:37.984375,31.57
2019-08-13 14:17:38.000000,30.0
2019-08-13 14:17:38.015625,26.72
2019-08-13 14:17:38.031250,22.72
2019-08-13 14:17:38.046875,18.73
2019-08-13 14:17:38.062500,14.95
2019-08-13 14:17:38.078125,11.22
2019-08-13 14:17:38.093750,7.25
2019-08-13 14:17:38.109375,2.92
2019-08-13 14:17:38.125000,-1.67
2019-08-13 14:17:38.140625,-6.38
2019-08-13 14:17:38.156250,-11.01
2019-08-13 14:17:38.171875,-15.33
2019-08-13 14:17:38.187500,-19.13
2019-08-13 14:17:38.203125,-22.04
2019-08-13 14:17:38.218750,-23.62
2019-08-13 14:17:38.234375,-23.54
2019-08-13 14:17:38.250000,-21.7
2019-08-13 14:17:38.265625,-18.34
2019-08-13 14:17:38.281250,-13.93
2019-08-13 14:17:38.296875,-8.99
2019-08-13 14:17:38.312500,-4.03
2019-08-13 14:17:38.328125,0.52
2019-08-13 14:17:38.343750,4.33
2019-08-13 14:17:38.359375,7.19
2019-08-13 14:17:38.375000,8.98
2019-08-13 14:17:38.390625,9.71
2019-08-13 14:17:38.406250,9.57
2019-08-13 14:17:38.421875,8.83
2019-08-13 14:17:38.437500,7.82
2019-08-13 14:17:38.453125,6.75
2019-08-13 14:17:38.468750,5.67
2019-08-13 14:17:38.484375,4.53
2019-08-13 14:17:38.500000,3.24
2019-08-13 14:17:38.515625,1.77
2019-08-13 14:17:38.531250,0.17
2019-08-13 14:17:38.546875,-1.49
2019-08-13 14:17:38.562500,-3.08
2019-08-13 14:17:38.578125,-4.48
2019-08-13 14:17:38.593750,-5.61
2019-08-13 14:17:38.609375,-6.43
2019-08-13 14:17:38.625000,-6.92
2019-08-13 14:17:38.640625,-7.12
2019-08-13 14:17:38.656250,-7.1
2019-08-13 14:17:38.671875,-6.96
2019-08-13 14:17:38.687500,-6.8
2019-08-13 14:17:38.703125,-6.68
2019-08-13 14:17:38.718750,-6.61
2019-08-13 14:17:38.734375,-6.55
2019-08-13 14:17:38.750000,-6.43
2019-08-13 14:17:38.765625,-6.17
2019-08-13 14:17:38.781250,-5.74
2019-08-13 14:17:38.796875,-5.18
2019-08-13 14:17:38.812500,-4.59
2019-08-13 14:17:38.828125,-4.07
2019-08-13 14:17:38.843750,-3.72
2019-08-13 14:17:38.859375,-3.55
2019-08-13 14:17:38.875000,-3.52
2019-08-13 14:17:38.890625,-3.53
2019-08-13 14:17:38.906250,-3.5
2019-08-13 14:17:38.921875,-3.37
2019-08-13 14:17:38.937500,-3.12
2019-08-13 14:17:38.953125,-2.76
2019-08-13 14:17:38.968750,-2.33
2019-08-13 14:17:38.984375,-1.85
2019-08-13 14:17:39.000000,-1.35
2019-08-13 14:17:39.015625,-0.87
2019-08-13 14:17:39.031250,-0.46
2019-08-13 14:17:39.046875,-0.15
2019-08-13 14:17:39.062500,0.07
2019-08-13 14:17:39.078125,0.31
2019-08-13 14:17:39.093750,0.7
2019-08-13 14:17:39.109375,1.38
2019-08-13 14:17:39.125000,2.34
2019-08-13 14:17:39.140625,3.47
2019-08-13 14:17:39.156250,4.55
2019-08-13 14:17:39.171875,5.39
2019-08-13 14:17:39.187500,5.84
2019-08-13 14:17:39.203125,5.9
2019-08-13 14:17:39.218750,5.64
2019-08-13 14:17:39.234375,5.16
2019-08-13 14:17:39.250000,4.59
2019-08-13 14:17:39.265625,4.04
2019-08-13 14:17:39.281250,3.67
2019-08-13 14:17:39.296875,3.69
2019-08-13 14:17:39.312500,4.29
2019-08-13 14:17:39.328125,5.58
2019-08-13 14:17:39.343750,7.5
2019-08-13 14:17:39.359375,9.86
2019-08-13 14:17:39.375000,12.48
2019-08-13 14:17:39.390625,15.16
2019-08-13 14:17:39.406250,17.76
2019-08-13 14:17:39.421875,20.12
2019-08-13 14:17:39.437500,22.13
2019-08-13 14:17:39.453125,23.76
2019-08-13 14:17:39.468750,25.18
2019-08-13 14:17:39.484375,26.63
2019-08-13 14:17:39.500000,28.39
2019-08-13 14:17:39.515625,30.56
2019-08-13 14:17:39.531250,32.76
2019-08-13 14:17:39.546875,34.02
2019-08-13 14:17:39.562500,33.15
2019-08-13 14:17:39.578125,29.29
2019-08-13 14:17:39.593750,22.51
2019-08-13 14:17:39.609375,13.81
2019-08-13 14:17:39.625000,4.77
2019-08-13 14:17:39.640625,-3.31
2019-08-13 14:17:39.656250,-9.74
2019-08-13 14:17:39.671875,-14.46
2019-08-13 14:17:39.687500,-17.74
2019-08-13 14:17:39.703125,-19.93
2019-08-13 14:17:39.718750,-21.09
2019-08-13 14:17:39.734375,-21.12
2019-08-13 14:17:39.750000,-19.88
2019-08-13 14:17:39.765625,-17.31
2019-08-13 14:17:39.781250,-13.73
2019-08-13 14:17:39.796875,-9.82
2019-08-13 14:17:39.812500,-6.24
2019-08-13 14:17:39.828125,-3.54
2019-08-13 14:17:39.843750,-1.89
2019-08-13 14:17:39.859375,-1.08
2019-08-13 14:17:39.875000,-0.52
2019-08-13 14:17:39.890625,0.46
2019-08-13 14:17:39.906250,2.4
2019-08-13 14:17:39.921875,5.38
2019-08-13 14:17:39.937500,8.98
2019-08-13 14:17:39.953125,12.35
2019-08-13 14:17:39.968750,14.46
2019-08-13 14:17:39.984375,14.51
2019-08-13 14:17:40.000000,12.26
2019-08-13 14:17:40.015625,8.2
2019-08-13 14:17:40.031250,3.31
2019-08-13 14:17:40.046875,-1.3
2019-08-13 14:17:40.062500,-4.59
2019-08-13 14:17:40.078125,-6.47
2019-08-13 14:17:40.093750,-7.1
2019-08-13 14:17:40.109375,-7.03
2019-08-13 14:17:40.125000,-6.98
2019-08-13 14:17:40.140625,-7.69
2019-08-13 14:17:40.156250,-9.74
2019-08-13 14:17:40.171875,-13.42
2019-08-13 14:17:40.187500,-18.56
2019-08-13 14:17:40.203125,-24.54
2019-08-13 14:17:40.218750,-30.37
2019-08-13 14:17:40.234375,-34.89
2019-08-13 14:17:40.250000,-37.24
2019-08-13 14:17:40.265625,-37.08
2019-08-13 14:17:40.281250,-34.61
2019-08-13 14:17:40.296875,-30.4
2019-08-13 14:17:40.312500,-25.15
2019-08-13 14:17:40.328125,-19.48
2019-08-13 14:17:40.343750,-13.89
2019-08-13 14:17:40.359375,-8.78
2019-08-13 14:17:40.375000,-4.42
2019-08-13 14:17:40.390625,-0.99
2019-08-13 14:17:40.406250,1.5
2019-08-13 14:17:40.421875,3.24
2019-08-13 14:17:40.437500,4.52
2019-08-13 14:17:40.453125,5.58
2019-08-13 14:17:40.468750,6.51
2019-08-13 14:17:40.484375,7.22
2019-08-13 14:17:40.500000,7.53
2019-08-13 14:17:40.515625,7.33
2019-08-13 14:17:40.531250,6.66
2019-08-13 14:17:40.546875,5.71
2019-08-13 14:17:40.562500,4.73
2019-08-13 14:17:40.578125,3.95
2019-08-13 14:17:40.593750,3.53
2019-08-13 14:17:40.609375,3.48
2019-08-13 14:17:40.625000,3.75
2019-08-13 14:17:40.640625,4.26
2019-08-13 14:17:40.656250,4.86
2019-08-13 14:17:40.671875,5.39
2019-08-13 14:17:40.687500,5.68
2019-08-13 14:17:40.703125,5.63
2019-08-13 14:17:40.718750,5.29
2019-08-13 14:17:40.734375,4.81
2019-08-13 14:17:40.750000,4.38
2019-08-13 14:17:40.765625,4.18
2019-08-13 14:17:40.781250,4.2
2019-08-13 14:17:40.796875,4.3
2019-08-13 14:17:40.812500,4.25
2019-08-13 14:17:40.828125,3.89
2019-08-13 14:17:40.843750,3.2
2019-08-13 14:17:40.859375,2.28
2019-08-13 14:17:40.875000,1.39
2019-08-13 14:17:40.890625,0.76
2019-08-13 14:17:40.906250,0.57
2019-08-13 14:17:40.921875,0.88
2019-08-13 14:17:40.937500,1.65
2019-08-13 14:17:40.953125,2.8
2019-08-13 14:17:40.968750,4.18
2019-08-13 14:17:40.984375,5.64
2019-08-13 14:17:41.000000,7.01
2019-08-13 14:17:41.015625,8.03
2019-08-13 14:17:41.031250,8.46
2019-08-13 14:17:41.046875,8.09
2019-08-13 14:17:41.062500,6.87
2019-08-13 14:17:41.078125,4.91
2019-08-13 14:17:41.093750,2.48
2019-08-13 14:17:41.109375,-0.12
2019-08-13 14:17:41.125000,-2.62
2019-08-13 14:17:41.140625,-4.88
2019-08-13 14:17:41.156250,-6.96
2019-08-13 14:17:41.171875,-8.96
2019-08-13 14:17:41.187500,-10.98
2019-08-13 14:17:41.203125,-13.03
2019-08-13 14:17:41.218750,-15.04
2019-08-13 14:17:41.234375,-16.89
2019-08-13 14:17:41.250000,-18.43
2019-08-13 14:17:41.265625,-19.53
2019-08-13 14:17:41.281250,-20.12
2019-08-13 14:17:41.296875,-20.23
2019-08-13 14:17:41.312500,-20.09
2019-08-13 14:17:41.328125,-20.0
2019-08-13 14:17:41.343750,-20.4
2019-08-13 14:17:41.359375,-21.73
2019-08-13 14:17:41.375000,-24.22
2019-08-13 14:17:41.390625,-27.82
2019-08-13 14:17:41.406250,-32.06
2019-08-13 14:17:41.421875,-36.31
2019-08-13 14:17:41.437500,-39.98
2019-08-13 14:17:41.453125,-42.77
2019-08-13 14:17:41.468750,-44.79
2019-08-13 14:17:41.484375,-46.57
2019-08-13 14:17:41.500000,-48.87
2019-08-13 14:17:41.515625,-52.32
2019-08-13 14:17:41.531250,-57.09
2019-08-13 14:17:41.546875,-62.72
2019-08-13 14:17:41.562500,-67.94
2019-08-13 14:17:41.578125,-71.3
2019-08-13 14:17:41.593750,-71.37
2019-08-13 14:17:41.609375,-67.09
2019-08-13 14:17:41.625000,-57.97
2019-08-13 14:17:41.640625,-44.23
2019-08-13 14:17:41.656250,-26.79
2019-08-13 14:17:41.671875,-7.61
2019-08-13 14:17:41.687500,11.53
2019-08-13 14:17:41.703125,29.13
2019-08-13 14:17:41.718750,44.12
2019-08-13 14:17:41.734375,55.91
2019-08-13 14:17:41.750000,64.4
2019-08-13 14:17:41.765625,69.92
2019-08-13 14:17:41.781250,72.94
2019-08-13 14:17:41.796875,73.99
2019-08-13 14:17:41.812500,73.49
2019-08-13 14:17:41.828125,71.87
2019-08-13 14:17:41.843750,69.38
2019-08-13 14:17:41.859375,66.11
2019-08-13 14:17:41.875000,62.17
2019-08-13 14:17:41.890625,57.64
2019-08-13 14:17:41.906250,52.65
2019-08-13 14:17:41.921875,47.29
2019-08-13 14:17:41.937500,41.64
2019-08-13 14:17:41.953125,35.72
2019-08-13 14:17:41.968750,29.65
2019-08-13 14:17:41.984375,23.5
2019-08-13 14:17:42.000000,17.36
2019-08-13 14:17:42.015625,11.35
2019-08-13 14:17:42.031250,5.58
2019-08-13 14:17:42.046875,0.1
2019-08-13 14:17:42.062500,-5.03
2019-08-13 14:17:42.078125,-9.74
2019-08-13 14:17:42.093750,-13.88
2019-08-13 14:17:42.109375,-17.12
2019-08-13 14:17:42.125000,-19.16
2019-08-13 14:17:42.140625,-19.8
2019-08-13 14:17:42.156250,-19.09
2019-08-13 14:17:42.171875,-17.37
2019-08-13 14:17:42.187500,-15.17
2019-08-13 14:17:42.203125,-13.03
2019-08-13 14:17:42.218750,-11.29
2019-08-13 14:17:42.234375,-9.96
2019-08-13 14:17:42.250000,-8.77
2019-08-13 14:17:42.265625,-7.41
2019-08-13 14:17:42.281250,-5.67
2019-08-13 14:17:42.296875,-3.56
2019-08-13 14:17:42.312500,-1.36
2019-08-13 14:17:42.328125,0.56
2019-08-13 14:17:42.343750,1.87
2019-08-13 14:17:42.359375,2.38
2019-08-13 14:17:42.375000,2.04
2019-08-13 14:17:42.390625,0.94
2019-08-13 14:17:42.406250,-0.82
2019-08-13 14:17:42.421875,-3.09
2019-08-13 14:17:42.437500,-5.7
2019-08-13 14:17:42.453125,-8.36
2019-08-13 14:17:42.468750,-10.75
2019-08-13 14:17:42.484375,-12.55
2019-08-13 14:17:42.500000,-13.51
2019-08-13 14:17:42.515625,-13.58
2019-08-13 14:17:42.531250,-12.99
2019-08-13 14:17:42.546875,-12.25
2019-08-13 14:17:42.562500,-12.0
2019-08-13 14:17:42.578125,-12.77
2019-08-13 14:17:42.593750,-14.73
2019-08-13 14:17:42.609375,-17.55
2019-08-13 14:17:42.625000,-20.46
2019-08-13 14:17:42.640625,-22.64
2019-08-13 14:17:42.656250,-23.54
2019-08-13 14:17:42.671875,-23.14
2019-08-13 14:17:42.687500,-21.91
2019-08-13 14:17:42.703125,-20.45
2019-08-13 14:17:42.718750,-18.99
2019-08-13 14:17:42.734375,-17.18
2019-08-13 14:17:42.750000,-14.22
2019-08-13 14:17:42.765625,-9.27
2019-08-13 14:17:42.781250,-1.94
2019-08-13 14:17:42.796875,7.43
2019-08-13 14:17:42.812500,17.95
2019-08-13 14:17:42.828125,28.49
2019-08-13 14:17:42.843750,38.0
2019-08-13 14:17:42.859375,45.42
2019-08-13 14:17:42.875000,49.86
2019-08-13 14:17:42.890625,50.62
2019-08-13 14:17:42.906250,47.52
2019-08-13 14:17:42.921875,41.14
2019-08-13 14:17:42.937500,32.92
2019-08-13 14:17:42.953125,24.9
2019-08-13 14:17:42.968750,19.04
2019-08-13 14:17:42.984375,16.44
2019-08-13 14:17:43.000000,16.99
2019-08-13 14:17:43.015625,19.93
2019-08-13 14:17:43.031250,23.92
2019-08-13 14:17:43.046875,27.8
2019-08-13 14:17:43.062500,30.83
2019-08-13 14:17:43.078125,32.67
2019-08-13 14:17:43.093750,33.16
2019-08-13 14:17:43.109375,32.25
2019-08-13 14:17:43.125000,29.95
2019-08-13 14:17:43.140625,26.43
2019-08-13 14:17:43.156250,22.11
2019-08-13 14:17:43.171875,17.27
2019-08-13 14:17:43.187500,12.41
2019-08-13 14:17:43.203125,8.0
2019-08-13 14:17:43.218750,4.36
2019-08-13 14:17:43.234375,1.56
2019-08-13 14:17:43.250000,-0.48
2019-08-13 14:17:43.265625,-1.97
2019-08-13 14:17:43.281250,-3.12
2019-08-13 14:17:43.296875,-4.08
2019-08-13 14:17:43.312500,-4.9
2019-08-13 14:17:43.328125,-5.57
2019-08-13 14:17:43.343750,-6.08
2019-08-13 14:17:43.359375,-6.48
2019-08-13 14:17:43.375000,-6.91
2019-08-13 14:17:43.390625,-7.48
2019-08-13 14:17:43.406250,-8.2
2019-08-13 14:17:43.421875,-8.91
2019-08-13 14:17:43.437500,-9.33
2019-08-13 14:17:43.453125,-9.19
2019-08-13 14:17:43.468750,-8.37
2019-08-13 14:17:43.484375,-7.05
2019-08-13 14:17:43.500000,-5.68
2019-08-13 14:17:43.515625,-4.77
2019-08-13 14:17:43.531250,-4.68
2019-08-13 14:17:43.546875,-5.48
2019-08-13 14:17:43.562500,-6.91
2019-08-13 14:17:43.578125,-8.58
2019-08-13 14:17:43.593750,-10.09
2019-08-13 14:17:43.609375,-11.21
2019-08-13 14:17:43.625000,-11.89
2019-08-13 14:17:43.640625,-12.14
2019-08-13 14:17:43.656250,-12.01
2019-08-13 14:17:43.671875,-11.48
2019-08-13 14:17:43.687500,-10.56
2019-08-13 14:17:43.703125,-9.32
2019-08-13 14:17:43.718750,-7.89
2019-08-13 14:17:43.734375,-6.47
2019-08-13 14:17:43.750000,-5.19
