2019-07-31 08:11:10.000000,-0.0
2019-07-31 08:11:10.015625,-0.0
2019-07-31 08:11:10.031250,-0.0
2019-07-31 08:11:10.046875,-0.0
2019-07-31 08:11:10.062500,-0.0
2019-07-31 08:11:10.078125,-0.0
2019-07-31 08:11:10.093750,-0.0
2019-07-31 08:11:10.109375,-0.0
2019-07-31 08:11:10.125000,-0.0
2019-07-31 08:11:10.140625,-0.0
2019-07-31 08:11:10.156250,0.0
2019-07-31 08:11:10.171875,0.01
2019-07-31 08:11:10.187500,0.01
2019-07-31 08:11:10.203125,-0.0
2019-07-31 08:11:10.218750,-0.03
2019-07-31 08:11:10.234375,-0.05
2019-07-31 08:11:10.250000,-0.05
2019-07-31 08:11:10.265625,0.0
2019-07-31 08:11:10.281250,0.13
2019-07-31 08:11:10.296875,0.36
2019-07-31 08:11:10.312500,0.66
2019-07-31 08:11:10.328125,1.01
2019-07-31 08:11:10.343750,1.37
2019-07-31 08:11:10.359375,1.72
2019-07-31 08:11:10.375000,2.06
2019-07-31 08:11:10.390625,2.4
2019-07-31 08:11:10.406250,2.79
2019-07-31 08:11:10.421875,3.24
2019-07-31 08:11:10.437500,3.8
2019-07-31 08:11:10.453125,4.43
2019-07-31 08:11:10.468750,5.09
2019-07-31 08:11:10.484375,5.72
2019-07-31 08:11:10.500000,6.31
2019-07-31 08:11:10.515625,6.87
2019-07-31 08:11:10.531250,7.45
2019-07-31 08:11:10.546875,8.14
2019-07-31 08:11:10.562500,8.99
2019-07-31 08:11:10.578125,10.1
2019-07-31 08:11:10.593750,11.38
2019-07-31 08:11:10.609375,12.74
2019-07-31 08:11:10.625000,14.06
2019-07-31 08:11:10.640625,15.29
2019-07-31 08:11:10.656250,16.47
2019-07-31 08:11:10.671875,17.74
2019-07-31 08:11:10.687500,19.29
2019-07-31 08:11:10.703125,21.25
2019-07-31 08:11:10.718750,23.83
2019-07-31 08:11:10.734375,26.85
2019-07-31 08:11:10.750000,30.08
2019-07-31 08:11:10.765625,33.25
2019-07-31 08:11:10.781250,36.2
2019-07-31 08:11:10.796875,39.01
2019-07-31 08:11:10.812500,41.98
2019-07-31 08:11:10.828125,45.54
2019-07-31 08:11:10.843750,50.0
2019-07-31 08:11:10.859375,55.77
2019-07-31 08:11:10.875000,62.51
2019-07-31 08:11:10.890625,69.76
2019-07-31 08:11:10.906250,76.96
2019-07-31 08:11:10.921875,83.77
2019-07-31 08:11:10.937500,90.26
2019-07-31 08:11:10.953125,96.88
2019-07-31 08:11:10.968750,104.32
2019-07-31 08:11:10.984375,113.13
2019-07-31 08:11:11.000000,123.87
2019-07-31 08:11:11.015625,136.09
2019-07-31 08:11:11.031250,149.07
2019-07-31 08:11:11.046875,162.01
2019-07-31 08:11:11.062500,174.35
2019-07-31 08:11:11.078125,186.1
2019-07-31 08:11:11.093750,197.8
2019-07-31 08:11:11.109375,210.72
2019-07-31 08:11:11.125000,223.52
2019-07-31 08:11:11.140625,238.51
2019-07-31 08:11:11.156250,256.38
2019-07-31 08:11:11.171875,277.41
2019-07-31 08:11:11.187500,300.52
2019-07-31 08:11:11.203125,322.84
2019-07-31 08:11:11.218750,339.93
2019-07-31 08:11:11.234375,346.96
2019-07-31 08:11:11.250000,340.37
2019-07-31 08:11:11.265625,319.19
2019-07-31 08:11:11.281250,285.86
2019-07-31 08:11:11.296875,244.41
2019-07-31 08:11:11.312500,199.44
2019-07-31 08:11:11.328125,154.37
2019-07-31 08:11:11.343750,110.71
2019-07-31 08:11:11.359375,68.49
2019-07-31 08:11:11.375000,27.22
2019-07-31 08:11:11.390625,-13.18
2019-07-31 08:11:11.406250,-52.15
2019-07-31 08:11:11.421875,-88.4
2019-07-31 08:11:11.437500,-121.4
2019-07-31 08:11:11.453125,-151.23
2019-07-31 08:11:11.468750,-178.54
2019-07-31 08:11:11.484375,-204.14
2019-07-31 08:11:11.500000,-228.53
2019-07-31 08:11:11.515625,-251.62
2019-07-31 08:11:11.531250,-272.88
2019-07-31 08:11:11.546875,-291.93
2019-07-31 08:11:11.562500,-309.03
2019-07-31 08:11:11.578125,-325.64
2019-07-31 08:11:11.593750,-343.58
2019-07-31 08:11:11.609375,-363.68
2019-07-31 08:11:11.625000,-385.0
2019-07-31 08:11:11.640625,-404.51
2019-07-31 08:11:11.656250,-417.89
2019-07-31 08:11:11.671875,-421.31
2019-07-31 08:11:11.687500,-413.17
2019-07-31 08:11:11.703125,-394.65
2019-07-31 08:11:11.718750,-369.18
2019-07-31 08:11:11.734375,-340.52
2019-07-31 08:11:11.750000,-311.14
2019-07-31 08:11:11.765625,-281.87
2019-07-31 08:11:11.781250,-252.51
2019-07-31 08:11:11.796875,-223.26
2019-07-31 08:11:11.812500,-195.42
2019-07-31 08:11:11.828125,-170.98
2019-07-31 08:11:11.843750,-151.25
2019-07-31 08:11:11.859375,-135.81
2019-07-31 08:11:11.875000,-122.43
2019-07-31 08:11:11.890625,-108.23
2019-07-31 08:11:11.906250,-91.55
2019-07-31 08:11:11.921875,-72.9
2019-07-31 08:11:11.937500,-54.76
2019-07-31 08:11:11.953125,-40.14
2019-07-31 08:11:11.968750,-30.73
2019-07-31 08:11:11.984375,-25.72
2019-07-31 08:11:12.000000,-22.32
2019-07-31 08:11:12.015625,-17.3
2019-07-31 08:11:12.031250,-8.88
2019-07-31 08:11:12.046875,2.12
2019-07-31 08:11:12.062500,12.81
2019-07-31 08:11:12.078125,20.01
2019-07-31 08:11:12.093750,22.24
2019-07-31 08:11:12.109375,20.61
2019-07-31 08:11:12.125000,18.32
2019-07-31 08:11:12.140625,18.73
2019-07-31 08:11:12.156250,23.38
2019-07-31 08:11:12.171875,31.09
2019-07-31 08:11:12.187500,38.51
2019-07-31 08:11:12.203125,42.29
2019-07-31 08:11:12.218750,41.07
2019-07-31 08:11:12.234375,36.43
2019-07-31 08:11:12.250000,31.97
2019-07-31 08:11:12.265625,30.97
2019-07-31 08:11:12.281250,34.54
2019-07-31 08:11:12.296875,40.8
2019-07-31 08:11:12.312500,46.05
2019-07-31 08:11:12.328125,46.99
2019-07-31 08:11:12.343750,42.69
2019-07-31 08:11:12.359375,35.16
2019-07-31 08:11:12.375000,28.25
2019-07-31 08:11:12.390625,25.39
2019-07-31 08:11:12.406250,27.53
2019-07-31 08:11:12.421875,32.7
2019-07-31 08:11:12.437500,36.97
2019-07-31 08:11:12.453125,36.97
2019-07-31 08:11:12.468750,31.86
2019-07-31 08:11:12.484375,23.87
2019-07-31 08:11:12.500000,17.02
2019-07-31 08:11:12.515625,14.68
2019-07-31 08:11:12.531250,17.67
2019-07-31 08:11:12.546875,23.76
2019-07-31 08:11:12.562500,28.95
2019-07-31 08:11:12.578125,29.71
2019-07-31 08:11:12.593750,25.11
2019-07-31 08:11:12.609375,17.34
2019-07-31 08:11:12.625000,10.5
2019-07-31 08:11:12.640625,8.14
2019-07-31 08:11:12.656250,11.17
2019-07-31 08:11:12.671875,17.4
2019-07-31 08:11:12.687500,22.81
2019-07-31 08:11:12.703125,24.05
2019-07-31 08:11:12.718750,20.36
2019-07-31 08:11:12.734375,14.01
2019-07-31 08:11:12.750000,8.88
2019-07-31 08:11:12.765625,8.02
2019-07-31 08:11:12.781250,11.88
2019-07-31 08:11:12.796875,18.04
2019-07-31 08:11:12.812500,22.61
2019-07-31 08:11:12.828125,22.59
2019-07-31 08:11:12.843750,17.68
2019-07-31 08:11:12.859375,10.39
2019-07-31 08:11:12.875000,4.63
2019-07-31 08:11:12.890625,3.31
2019-07-31 08:11:12.906250,6.78
2019-07-31 08:11:12.921875,12.7
2019-07-31 08:11:12.937500,17.34
2019-07-31 08:11:12.953125,17.7
2019-07-31 08:11:12.968750,13.19
2019-07-31 08:11:12.984375,5.87
2019-07-31 08:11:13.000000,-0.61
2019-07-31 08:11:13.015625,-3.02
2019-07-31 08:11:13.031250,-0.32
2019-07-31 08:11:13.046875,5.68
2019-07-31 08:11:13.062500,11.45
2019-07-31 08:11:13.078125,13.69
2019-07-31 08:11:13.093750,11.21
2019-07-31 08:11:13.109375,5.54
2019-07-31 08:11:13.125000,0.01
2019-07-31 08:11:13.140625,-2.32
2019-07-31 08:11:13.156250,-0.34
2019-07-31 08:11:13.171875,4.41
2019-07-31 08:11:13.187500,8.69
2019-07-31 08:11:13.203125,9.47
2019-07-31 08:11:13.218750,5.78
2019-07-31 08:11:13.234375,-0.64
2019-07-31 08:11:13.250000,-6.28
2019-07-31 08:11:13.265625,-7.99
2019-07-31 08:11:13.281250,-4.97
2019-07-31 08:11:13.296875,0.65
2019-07-31 08:11:13.312500,4.95
2019-07-31 08:11:13.328125,4.55
2019-07-31 08:11:13.343750,-1.32
2019-07-31 08:11:13.359375,-10.24
2019-07-31 08:11:13.375000,-17.93
2019-07-31 08:11:13.390625,-20.62
2019-07-31 08:11:13.406250,-17.28
2019-07-31 08:11:13.421875,-10.19
2019-07-31 08:11:13.437500,-3.64
2019-07-31 08:11:13.453125,-1.55
2019-07-31 08:11:13.468750,-5.21
2019-07-31 08:11:13.484375,-12.53
2019-07-31 08:11:13.500000,-19.34
2019-07-31 08:11:13.515625,-21.81
2019-07-31 08:11:13.531250,-18.68
2019-07-31 08:11:13.546875,-12.02
2019-07-31 08:11:13.562500,-5.95
2019-07-31 08:11:13.578125,-4.12
2019-07-31 08:11:13.593750,-7.5
2019-07-31 08:11:13.609375,-13.72
2019-07-31 08:11:13.625000,-18.51
2019-07-31 08:11:13.640625,-18.33
2019-07-31 08:11:13.656250,-12.55
2019-07-31 08:11:13.671875,-4.0
2019-07-31 08:11:13.687500,2.73
2019-07-31 08:11:13.703125,3.96
2019-07-31 08:11:13.718750,-0.82
2019-07-31 08:11:13.734375,-8.6
2019-07-31 08:11:13.750000,-14.67
2019-07-31 08:11:13.765625,-15.28
2019-07-31 08:11:13.781250,-9.75
2019-07-31 08:11:13.796875,-0.83
2019-07-31 08:11:13.812500,6.89
2019-07-31 08:11:13.828125,9.61
2019-07-31 08:11:13.843750,6.32
2019-07-31 08:11:13.859375,-0.6
2019-07-31 08:11:13.875000,-6.89
2019-07-31 08:11:13.890625,-8.83
2019-07-31 08:11:13.906250,-5.32
2019-07-31 08:11:13.921875,1.51
2019-07-31 08:11:13.937500,7.55
2019-07-31 08:11:13.953125,9.21
2019-07-31 08:11:13.968750,5.53
2019-07-31 08:11:13.984375,-1.27
2019-07-31 08:11:14.000000,-6.97
2019-07-31 08:11:14.015625,-7.89
2019-07-31 08:11:14.031250,-3.01
2019-07-31 08:11:14.046875,5.36
2019-07-31 08:11:14.062500,12.91
2019-07-31 08:11:14.078125,15.83
2019-07-31 08:11:14.093750,13.05
2019-07-31 08:11:14.109375,6.81
2019-07-31 08:11:14.125000,1.23
2019-07-31 08:11:14.140625,-0.2
2019-07-31 08:11:14.156250,3.37
2019-07-31 08:11:14.171875,9.75
2019-07-31 08:11:14.187500,15.1
2019-07-31 08:11:14.203125,16.34
2019-07-31 08:11:14.218750,12.93
2019-07-31 08:11:14.234375,7.13
2019-07-31 08:11:14.250000,2.54
2019-07-31 08:11:14.265625,1.84
2019-07-31 08:11:14.281250,5.31
2019-07-31 08:11:14.296875,10.74
2019-07-31 08:11:14.312500,14.81
2019-07-31 08:11:14.328125,15.1
2019-07-31 08:11:14.343750,11.42
2019-07-31 08:11:14.359375,5.96
2019-07-31 08:11:14.375000,1.96
2019-07-31 08:11:14.390625,1.9
2019-07-31 08:11:14.406250,6.14
2019-07-31 08:11:14.421875,12.71
2019-07-31 08:11:14.437500,18.42
2019-07-31 08:11:14.453125,20.55
2019-07-31 08:11:14.468750,18.38
2019-07-31 08:11:14.484375,13.47
2019-07-31 08:11:14.500000,8.79
2019-07-31 08:11:14.515625,7.01
2019-07-31 08:11:14.531250,9.02
2019-07-31 08:11:14.546875,13.37
2019-07-31 08:11:14.562500,17.15
2019-07-31 08:11:14.578125,17.79
2019-07-31 08:11:14.593750,14.52
2019-07-31 08:11:14.609375,8.93
2019-07-31 08:11:14.625000,4.06
2019-07-31 08:11:14.640625,2.6
2019-07-31 08:11:14.656250,5.25
2019-07-31 08:11:14.671875,10.37
2019-07-31 08:11:14.687500,14.7
2019-07-31 08:11:14.703125,15.3
2019-07-31 08:11:14.718750,11.3
2019-07-31 08:11:14.734375,4.5
2019-07-31 08:11:14.750000,-1.51
2019-07-31 08:11:14.765625,-3.48
2019-07-31 08:11:14.781250,-0.44
2019-07-31 08:11:14.796875,5.6
2019-07-31 08:11:14.812500,10.84
2019-07-31 08:11:14.828125,12.0
2019-07-31 08:11:14.843750,8.39
2019-07-31 08:11:14.859375,2.32
2019-07-31 08:11:14.875000,-2.25
2019-07-31 08:11:14.890625,-2.17
2019-07-31 08:11:14.906250,3.02
2019-07-31 08:11:14.921875,10.57
2019-07-31 08:11:14.937500,16.15
2019-07-31 08:11:14.953125,16.35
2019-07-31 08:11:14.968750,10.68
2019-07-31 08:11:14.984375,2.04
2019-07-31 08:11:15.000000,-5.06
2019-07-31 08:11:15.015625,-7.05
2019-07-31 08:11:15.031250,-3.39
2019-07-31 08:11:15.046875,3.24
2019-07-31 08:11:15.062500,8.52
2019-07-31 08:11:15.078125,9.19
2019-07-31 08:11:15.093750,4.86
2019-07-31 08:11:15.109375,-1.81
2019-07-31 08:11:15.125000,-6.75
2019-07-31 08:11:15.140625,-7.11
2019-07-31 08:11:15.156250,-2.85
2019-07-31 08:11:15.171875,3.17
2019-07-31 08:11:15.187500,7.05
2019-07-31 08:11:15.203125,6.24
2019-07-31 08:11:15.218750,1.16
2019-07-31 08:11:15.234375,-5.12
2019-07-31 08:11:15.250000,-8.75
2019-07-31 08:11:15.265625,-7.3
2019-07-31 08:11:15.281250,-1.26
2019-07-31 08:11:15.296875,6.24
2019-07-31 08:11:15.312500,11.09
2019-07-31 08:11:15.328125,10.54
2019-07-31 08:11:15.343750,4.69
2019-07-31 08:11:15.359375,-3.5
2019-07-31 08:11:15.375000,-9.86
2019-07-31 08:11:15.390625,-11.33
2019-07-31 08:11:15.406250,-7.57
2019-07-31 08:11:15.421875,-1.18
2019-07-31 08:11:15.437500,3.87
2019-07-31 08:11:15.453125,4.64
2019-07-31 08:11:15.468750,0.93
2019-07-31 08:11:15.484375,-4.59
2019-07-31 08:11:15.500000,-8.1
2019-07-31 08:11:15.515625,-7.0
2019-07-31 08:11:15.531250,-1.51
2019-07-31 08:11:15.546875,5.42
2019-07-31 08:11:15.562500,9.81
2019-07-31 08:11:15.578125,9.25
2019-07-31 08:11:15.593750,4.29
2019-07-31 08:11:15.609375,-1.83
2019-07-31 08:11:15.625000,-5.12
2019-07-31 08:11:15.640625,-3.22
2019-07-31 08:11:15.656250,3.26
2019-07-31 08:11:15.671875,10.98
2019-07-31 08:11:15.687500,15.8
2019-07-31 08:11:15.703125,15.04
2019-07-31 08:11:15.718750,9.0
2019-07-31 08:11:15.734375,0.85
2019-07-31 08:11:15.750000,-5.21
2019-07-31 08:11:15.765625,-6.21
2019-07-31 08:11:15.781250,-2.05
2019-07-31 08:11:15.796875,4.51
2019-07-31 08:11:15.812500,9.43
2019-07-31 08:11:15.828125,9.77
2019-07-31 08:11:15.843750,5.32
2019-07-31 08:11:15.859375,-1.18
2019-07-31 08:11:15.875000,-5.81
2019-07-31 08:11:15.890625,-5.85
2019-07-31 08:11:15.906250,-1.36
2019-07-31 08:11:15.921875,4.85
2019-07-31 08:11:15.937500,9.03
2019-07-31 08:11:15.953125,8.58
2019-07-31 08:11:15.968750,3.69
2019-07-31 08:11:15.984375,-2.81
2019-07-31 08:11:16.000000,-7.12
2019-07-31 08:11:16.015625,-6.85
2019-07-31 08:11:16.031250,-2.3
2019-07-31 08:11:16.046875,3.72
2019-07-31 08:11:16.062500,7.56
2019-07-31 08:11:16.078125,6.82
2019-07-31 08:11:16.093750,1.79
2019-07-31 08:11:16.109375,-4.75
2019-07-31 08:11:16.125000,-9.14
2019-07-31 08:11:16.140625,-8.86
2019-07-31 08:11:16.156250,-4.02
2019-07-31 08:11:16.171875,2.61
2019-07-31 08:11:16.187500,7.3
2019-07-31 08:11:16.203125,7.43
2019-07-31 08:11:16.218750,3.08
2019-07-31 08:11:16.234375,-3.04
2019-07-31 08:11:16.250000,-7.2
2019-07-31 08:11:16.265625,-6.9
2019-07-31 08:11:16.281250,-2.3
2019-07-31 08:11:16.296875,3.89
2019-07-31 08:11:16.312500,8.03
2019-07-31 08:11:16.328125,7.73
2019-07-31 08:11:16.343750,3.1
2019-07-31 08:11:16.359375,-3.17
2019-07-31 08:11:16.375000,-7.59
2019-07-31 08:11:16.390625,-7.75
2019-07-31 08:11:16.406250,-3.91
2019-07-31 08:11:16.421875,1.39
2019-07-31 08:11:16.437500,4.86
2019-07-31 08:11:16.453125,4.44
2019-07-31 08:11:16.468750,0.52
2019-07-31 08:11:16.484375,-4.39
2019-07-31 08:11:16.500000,-7.14
2019-07-31 08:11:16.515625,-5.8
2019-07-31 08:11:16.531250,-0.85
2019-07-31 08:11:16.546875,5.06
2019-07-31 08:11:16.562500,8.69
2019-07-31 08:11:16.578125,8.06
2019-07-31 08:11:16.593750,3.69
2019-07-31 08:11:16.609375,-1.69
2019-07-31 08:11:16.625000,-4.76
2019-07-31 08:11:16.640625,-3.48
2019-07-31 08:11:16.656250,1.68
2019-07-31 08:11:16.671875,7.96
2019-07-31 08:11:16.687500,11.93
2019-07-31 08:11:16.703125,11.41
2019-07-31 08:11:16.718750,6.79
2019-07-31 08:11:16.734375,0.82
2019-07-31 08:11:16.750000,-2.97
2019-07-31 08:11:16.765625,-2.49
2019-07-31 08:11:16.781250,1.75
2019-07-31 08:11:16.796875,6.87
2019-07-31 08:11:16.812500,9.4
2019-07-31 08:11:16.828125,7.28
2019-07-31 08:11:16.843750,1.21
2019-07-31 08:11:16.859375,-5.77
2019-07-31 08:11:16.875000,-9.96
2019-07-31 08:11:16.890625,-9.14
2019-07-31 08:11:16.906250,-3.89
2019-07-31 08:11:16.921875,2.75
2019-07-31 08:11:16.937500,7.1
2019-07-31 08:11:16.953125,6.94
2019-07-31 08:11:16.968750,2.72
2019-07-31 08:11:16.984375,-2.77
2019-07-31 08:11:17.000000,-6.12
2019-07-31 08:11:17.015625,-5.24
2019-07-31 08:11:17.031250,-0.58
2019-07-31 08:11:17.046875,5.17
2019-07-31 08:11:17.062500,8.69
2019-07-31 08:11:17.078125,8.0
2019-07-31 08:11:17.093750,3.61
2019-07-31 08:11:17.109375,-1.77
2019-07-31 08:11:17.125000,-4.92
2019-07-31 08:11:17.140625,-4.02
2019-07-31 08:11:17.156250,0.29
2019-07-31 08:11:17.171875,5.26
2019-07-31 08:11:17.187500,7.66
2019-07-31 08:11:17.203125,5.64
2019-07-31 08:11:17.218750,-0.08
2019-07-31 08:11:17.234375,-6.68
2019-07-31 08:11:17.250000,-10.68
2019-07-31 08:11:17.265625,-10.02
2019-07-31 08:11:17.281250,-5.15
2019-07-31 08:11:17.296875,1.22
2019-07-31 08:11:17.312500,5.64
2019-07-31 08:11:17.328125,5.9
2019-07-31 08:11:17.343750,2.25
2019-07-31 08:11:17.359375,-2.73
2019-07-31 08:11:17.375000,-5.76
2019-07-31 08:11:17.390625,-4.74
2019-07-31 08:11:17.406250,-0.12
2019-07-31 08:11:17.421875,5.4
2019-07-31 08:11:17.437500,8.45
2019-07-31 08:11:17.453125,7.07
2019-07-31 08:11:17.468750,1.91
2019-07-31 08:11:17.484375,-4.08
2019-07-31 08:11:17.500000,-7.33
2019-07-31 08:11:17.515625,-5.69
2019-07-31 08:11:17.531250,0.21
2019-07-31 08:11:17.546875,7.31
2019-07-31 08:11:17.562500,11.8
2019-07-31 08:11:17.578125,11.28
2019-07-31 08:11:17.593750,6.14
2019-07-31 08:11:17.609375,-0.67
2019-07-31 08:11:17.625000,-5.32
2019-07-31 08:11:17.640625,-5.34
2019-07-31 08:11:17.656250,-0.97
2019-07-31 08:11:17.671875,4.93
2019-07-31 08:11:17.687500,8.56
2019-07-31 08:11:17.703125,7.37
2019-07-31 08:11:17.718750,1.65
2019-07-31 08:11:17.734375,-5.55
2019-07-31 08:11:17.750000,-10.23
2019-07-31 08:11:17.765625,-9.78
2019-07-31 08:11:17.781250,-4.61
2019-07-31 08:11:17.796875,2.16
2019-07-31 08:11:17.812500,6.57
2019-07-31 08:11:17.828125,6.15
2019-07-31 08:11:17.843750,1.34
2019-07-31 08:11:17.859375,-4.8
2019-07-31 08:11:17.875000,-8.51
2019-07-31 08:11:17.890625,-7.56
2019-07-31 08:11:17.906250,-2.57
2019-07-31 08:11:17.921875,3.48
2019-07-31 08:11:17.937500,6.97
2019-07-31 08:11:17.953125,5.93
2019-07-31 08:11:17.968750,1.1
2019-07-31 08:11:17.984375,-4.57
2019-07-31 08:11:18.000000,-7.79
2019-07-31 08:11:18.015625,-6.77
2019-07-31 08:11:18.031250,-2.23
2019-07-31 08:11:18.046875,2.98
2019-07-31 08:11:18.062500,5.59
2019-07-31 08:11:18.078125,3.74
2019-07-31 08:11:18.093750,-1.92
2019-07-31 08:11:18.109375,-8.55
2019-07-31 08:11:18.125000,-12.68
2019-07-31 08:11:18.140625,-12.14
2019-07-31 08:11:18.156250,-7.31
2019-07-31 08:11:18.171875,-0.83
2019-07-31 08:11:18.187500,3.86
2019-07-31 08:11:18.203125,4.44
2019-07-31 08:11:18.218750,1.09
2019-07-31 08:11:18.234375,-3.65
2019-07-31 08:11:18.250000,-6.27
2019-07-31 08:11:18.265625,-4.41
2019-07-31 08:11:18.281250,1.5
2019-07-31 08:11:18.296875,8.46
2019-07-31 08:11:18.312500,12.5
2019-07-31 08:11:18.328125,11.14
2019-07-31 08:11:18.343750,4.96
2019-07-31 08:11:18.359375,-2.57
2019-07-31 08:11:18.375000,-7.17
2019-07-31 08:11:18.390625,-6.27
2019-07-31 08:11:18.406250,-0.61
2019-07-31 08:11:18.421875,6.16
2019-07-31 08:11:18.437500,9.76
2019-07-31 08:11:18.453125,7.84
2019-07-31 08:11:18.468750,1.51
2019-07-31 08:11:18.484375,-5.45
2019-07-31 08:11:18.500000,-8.94
2019-07-31 08:11:18.515625,-7.12
2019-07-31 08:11:18.531250,-1.37
2019-07-31 08:11:18.546875,4.58
2019-07-31 08:11:18.562500,7.11
2019-07-31 08:11:18.578125,4.8
2019-07-31 08:11:18.593750,-0.81
2019-07-31 08:11:18.609375,-6.34
2019-07-31 08:11:18.625000,-8.6
2019-07-31 08:11:18.640625,-6.42
2019-07-31 08:11:18.656250,-1.27
2019-07-31 08:11:18.671875,3.68
2019-07-31 08:11:18.687500,5.5
2019-07-31 08:11:18.703125,3.14
2019-07-31 08:11:18.718750,-1.87
2019-07-31 08:11:18.734375,-6.41
2019-07-31 08:11:18.750000,-7.44
2019-07-31 08:11:18.765625,-3.75
2019-07-31 08:11:18.781250,3.26
2019-07-31 08:11:18.796875,10.37
2019-07-31 08:11:18.812500,14.07
2019-07-31 08:11:18.828125,12.58
2019-07-31 08:11:18.843750,6.72
2019-07-31 08:11:18.859375,-0.43
2019-07-31 08:11:18.875000,-5.27
2019-07-31 08:11:18.890625,-5.64
2019-07-31 08:11:18.906250,-1.92
2019-07-31 08:11:18.921875,3.19
2019-07-31 08:11:18.937500,6.25
2019-07-31 08:11:18.953125,5.02
2019-07-31 08:11:18.968750,-0.3
2019-07-31 08:11:18.984375,-7.33
2019-07-31 08:11:19.000000,-12.71
2019-07-31 08:11:19.015625,-13.93
2019-07-31 08:11:19.031250,-10.64
2019-07-31 08:11:19.046875,-4.68
2019-07-31 08:11:19.062500,0.98
2019-07-31 08:11:19.078125,4.02
2019-07-31 08:11:19.093750,4.06
2019-07-31 08:11:19.109375,2.68
2019-07-31 08:11:19.125000,2.17
2019-07-31 08:11:19.140625,3.94
2019-07-31 08:11:19.156250,7.38
2019-07-31 08:11:19.171875,10.21
2019-07-31 08:11:19.187500,9.94
2019-07-31 08:11:19.203125,5.47
2019-07-31 08:11:19.218750,-1.95
2019-07-31 08:11:19.234375,-9.15
2019-07-31 08:11:19.250000,-12.66
2019-07-31 08:11:19.265625,-10.63
2019-07-31 08:11:19.281250,-3.78
2019-07-31 08:11:19.296875,4.86
2019-07-31 08:11:19.312500,11.43
2019-07-31 08:11:19.328125,13.3
2019-07-31 08:11:19.343750,10.39
2019-07-31 08:11:19.359375,5.03
2019-07-31 08:11:19.375000,0.52
2019-07-31 08:11:19.390625,-0.83
2019-07-31 08:11:19.406250,1.02
2019-07-31 08:11:19.421875,3.97
2019-07-31 08:11:19.437500,5.29
2019-07-31 08:11:19.453125,3.48
2019-07-31 08:11:19.468750,-0.64
2019-07-31 08:11:19.484375,-4.34
2019-07-31 08:11:19.500000,-4.86
2019-07-31 08:11:19.515625,-1.24
2019-07-31 08:11:19.531250,4.87
2019-07-31 08:11:19.546875,10.05
2019-07-31 08:11:19.562500,11.2
2019-07-31 08:11:19.578125,7.45
2019-07-31 08:11:19.593750,0.82
2019-07-31 08:11:19.609375,-5.0
2019-07-31 08:11:19.625000,-6.68
2019-07-31 08:11:19.640625,-3.21
2019-07-31 08:11:19.656250,3.59
2019-07-31 08:11:19.671875,10.05
2019-07-31 08:11:19.687500,12.66
2019-07-31 08:11:19.703125,9.85
2019-07-31 08:11:19.718750,2.77
2019-07-31 08:11:19.734375,-5.31
2019-07-31 08:11:19.750000,-10.71
2019-07-31 08:11:19.765625,-11.23
2019-07-31 08:11:19.781250,-7.18
2019-07-31 08:11:19.796875,-1.15
2019-07-31 08:11:19.812500,3.42
2019-07-31 08:11:19.828125,4.08
2019-07-31 08:11:19.843750,0.8
2019-07-31 08:11:19.859375,-4.19
2019-07-31 08:11:19.875000,-7.64
2019-07-31 08:11:19.890625,-7.33
2019-07-31 08:11:19.906250,-3.23
2019-07-31 08:11:19.921875,2.35
2019-07-31 08:11:19.937500,6.23
2019-07-31 08:11:19.953125,6.17
2019-07-31 08:11:19.968750,2.29
2019-07-31 08:11:19.984375,-2.93
2019-07-31 08:11:20.000000,-6.21
2019-07-31 08:11:20.015625,-5.38
2019-07-31 08:11:20.031250,-0.77
2019-07-31 08:11:20.046875,4.88
2019-07-31 08:11:20.062500,8.12
2019-07-31 08:11:20.078125,6.73
2019-07-31 08:11:20.093750,1.21
2019-07-31 08:11:20.109375,-5.57
2019-07-31 08:11:20.125000,-9.89
2019-07-31 08:11:20.140625,-9.3
2019-07-31 08:11:20.156250,-3.96
2019-07-31 08:11:20.171875,3.36
2019-07-31 08:11:20.187500,8.76
2019-07-31 08:11:20.203125,9.25
2019-07-31 08:11:20.218750,4.3
2019-07-31 08:11:20.234375,-3.85
2019-07-31 08:11:20.250000,-11.57
2019-07-31 08:11:20.265625,-15.7
2019-07-31 08:11:20.281250,-15.35
2019-07-31 08:11:20.296875,-12.07
2019-07-31 08:11:20.312500,-8.74
2019-07-31 08:11:20.328125,-7.59
2019-07-31 08:11:20.343750,-8.82
2019-07-31 08:11:20.359375,-10.5
2019-07-31 08:11:20.375000,-9.9
2019-07-31 08:11:20.390625,-5.5
2019-07-31 08:11:20.406250,1.94
2019-07-31 08:11:20.421875,9.52
2019-07-31 08:11:20.437500,13.84
2019-07-31 08:11:20.453125,12.93
2019-07-31 08:11:20.468750,7.48
2019-07-31 08:11:20.484375,0.61
2019-07-31 08:11:20.500000,-3.87
2019-07-31 08:11:20.515625,-3.4
2019-07-31 08:11:20.531250,1.91
2019-07-31 08:11:20.546875,9.4
2019-07-31 08:11:20.562500,15.34
2019-07-31 08:11:20.578125,16.9
2019-07-31 08:11:20.593750,13.61
2019-07-31 08:11:20.609375,7.4
2019-07-31 08:11:20.625000,1.32
2019-07-31 08:11:20.640625,-2.23
2019-07-31 08:11:20.656250,-2.7
2019-07-31 08:11:20.671875,-1.37
2019-07-31 08:11:20.687500,-0.28
2019-07-31 08:11:20.703125,-0.75
2019-07-31 08:11:20.718750,-2.53
2019-07-31 08:11:20.734375,-4.06
2019-07-31 08:11:20.750000,-3.59
2019-07-31 08:11:20.765625,-0.6
2019-07-31 08:11:20.781250,3.75
2019-07-31 08:11:20.796875,7.1
2019-07-31 08:11:20.812500,7.19
2019-07-31 08:11:20.828125,3.35
2019-07-31 08:11:20.843750,-2.93
2019-07-31 08:11:20.859375,-8.64
2019-07-31 08:11:20.875000,-10.75
2019-07-31 08:11:20.890625,-7.94
2019-07-31 08:11:20.906250,-1.38
2019-07-31 08:11:20.921875,5.73
2019-07-31 08:11:20.937500,9.97
2019-07-31 08:11:20.953125,9.34
2019-07-31 08:11:20.968750,4.52
2019-07-31 08:11:20.984375,-1.71
2019-07-31 08:11:21.000000,-6.0
2019-07-31 08:11:21.015625,-6.36
2019-07-31 08:11:21.031250,-3.22
2019-07-31 08:11:21.046875,0.97
2019-07-31 08:11:21.062500,3.33
2019-07-31 08:11:21.078125,2.26
2019-07-31 08:11:21.093750,-1.66
2019-07-31 08:11:21.109375,-5.99
2019-07-31 08:11:21.125000,-8.0
2019-07-31 08:11:21.140625,-6.32
2019-07-31 08:11:21.156250,-1.78
2019-07-31 08:11:21.171875,3.01
2019-07-31 08:11:21.187500,5.2
2019-07-31 08:11:21.203125,3.36
2019-07-31 08:11:21.218750,-1.51
2019-07-31 08:11:21.234375,-6.54
2019-07-31 08:11:21.250000,-8.53
2019-07-31 08:11:21.265625,-5.95
2019-07-31 08:11:21.281250,0.11
2019-07-31 08:11:21.296875,6.51
2019-07-31 08:11:21.312500,9.71
2019-07-31 08:11:21.328125,7.9
2019-07-31 08:11:21.343750,2.16
2019-07-31 08:11:21.359375,-4.24
2019-07-31 08:11:21.375000,-7.72
2019-07-31 08:11:21.390625,-6.44
2019-07-31 08:11:21.406250,-1.34
2019-07-31 08:11:21.421875,4.5
2019-07-31 08:11:21.437500,7.87
2019-07-31 08:11:21.453125,7.1
2019-07-31 08:11:21.468750,3.03
2019-07-31 08:11:21.484375,-1.66
2019-07-31 08:11:21.500000,-4.18
2019-07-31 08:11:21.515625,-3.19
2019-07-31 08:11:21.531250,0.43
2019-07-31 08:11:21.546875,4.19
2019-07-31 08:11:21.562500,5.49
2019-07-31 08:11:21.578125,3.24
2019-07-31 08:11:21.593750,-1.45
2019-07-31 08:11:21.609375,-5.9
2019-07-31 08:11:21.625000,-7.42
2019-07-31 08:11:21.640625,-4.9
2019-07-31 08:11:21.656250,0.52
2019-07-31 08:11:21.671875,6.0
2019-07-31 08:11:21.687500,8.53
2019-07-31 08:11:21.703125,6.49
2019-07-31 08:11:21.718750,0.56
2019-07-31 08:11:21.734375,-6.47
2019-07-31 08:11:21.750000,-11.19
2019-07-31 08:11:21.765625,-11.3
2019-07-31 08:11:21.781250,-6.81
2019-07-31 08:11:21.796875,-0.1
2019-07-31 08:11:21.812500,5.34
2019-07-31 08:11:21.828125,6.84
2019-07-31 08:11:21.843750,4.09
2019-07-31 08:11:21.859375,-0.8
2019-07-31 08:11:21.875000,-4.51
2019-07-31 08:11:21.890625,-4.58
2019-07-31 08:11:21.906250,-0.91
2019-07-31 08:11:21.921875,4.18
2019-07-31 08:11:21.937500,7.35
2019-07-31 08:11:21.953125,6.39
2019-07-31 08:11:21.968750,1.47
2019-07-31 08:11:21.984375,-4.69
2019-07-31 08:11:22.000000,-8.64
2019-07-31 08:11:22.015625,-8.14
2019-07-31 08:11:22.031250,-3.55
2019-07-31 08:11:22.046875,2.4
2019-07-31 08:11:22.062500,6.35
2019-07-31 08:11:22.078125,6.33
2019-07-31 08:11:22.093750,2.86
2019-07-31 08:11:22.109375,-1.56
2019-07-31 08:11:22.125000,-4.07
2019-07-31 08:11:22.140625,-3.21
2019-07-31 08:11:22.156250,0.34
2019-07-31 08:11:22.171875,4.18
2019-07-31 08:11:22.187500,5.67
2019-07-31 08:11:22.203125,3.56
2019-07-31 08:11:22.218750,-1.35
2019-07-31 08:11:22.234375,-6.37
2019-07-31 08:11:22.250000,-8.54
2019-07-31 08:11:22.265625,-6.33
2019-07-31 08:11:22.281250,-0.52
2019-07-31 08:11:22.296875,6.03
2019-07-31 08:11:22.312500,9.99
2019-07-31 08:11:22.328125,9.44
2019-07-31 08:11:22.343750,4.81
2019-07-31 08:11:22.359375,-1.36
2019-07-31 08:11:22.375000,-5.9
2019-07-31 08:11:22.390625,-6.75
2019-07-31 08:11:22.406250,-4.0
2019-07-31 08:11:22.421875,0.32
2019-07-31 08:11:22.437500,3.42
2019-07-31 08:11:22.453125,3.52
2019-07-31 08:11:22.468750,0.86
2019-07-31 08:11:22.484375,-2.43
2019-07-31 08:11:22.500000,-3.74
2019-07-31 08:11:22.515625,-1.63
2019-07-31 08:11:22.531250,3.15
2019-07-31 08:11:22.546875,7.88
2019-07-31 08:11:22.562500,9.51
2019-07-31 08:11:22.578125,6.58
2019-07-31 08:11:22.593750,0.24
2019-07-31 08:11:22.609375,-6.12
2019-07-31 08:11:22.625000,-8.85
2019-07-31 08:11:22.640625,-6.12
2019-07-31 08:11:22.656250,0.91
2019-07-31 08:11:22.671875,8.53
2019-07-31 08:11:22.687500,12.64
2019-07-31 08:11:22.703125,11.13
2019-07-31 08:11:22.718750,5.1
2019-07-31 08:11:22.734375,-1.75
2019-07-31 08:11:22.750000,-5.35
2019-07-31 08:11:22.765625,-3.78
2019-07-31 08:11:22.781250,1.61
2019-07-31 08:11:22.796875,6.99
2019-07-31 08:11:22.812500,8.46
2019-07-31 08:11:22.828125,4.56
2019-07-31 08:11:22.843750,-2.98
2019-07-31 08:11:22.859375,-10.09
2019-07-31 08:11:22.875000,-12.74
2019-07-31 08:11:22.890625,-9.29
2019-07-31 08:11:22.906250,-1.56
2019-07-31 08:11:22.921875,6.21
2019-07-31 08:11:22.937500,9.6
2019-07-31 08:11:22.953125,6.62
2019-07-31 08:11:22.968750,-1.15
2019-07-31 08:11:22.984375,-9.42
2019-07-31 08:11:23.000000,-13.65
2019-07-31 08:11:23.015625,-11.6
2019-07-31 08:11:23.031250,-4.56
2019-07-31 08:11:23.046875,3.36
2019-07-31 08:11:23.062500,7.73
2019-07-31 08:11:23.078125,6.23
2019-07-31 08:11:23.093750,-0.05
2019-07-31 08:11:23.109375,-7.31
2019-07-31 08:11:23.125000,-11.29
2019-07-31 08:11:23.140625,-9.69
2019-07-31 08:11:23.156250,-3.49
2019-07-31 08:11:23.171875,3.54
2019-07-31 08:11:23.187500,7.12
2019-07-31 08:11:23.203125,4.99
2019-07-31 08:11:23.218750,-1.82
2019-07-31 08:11:23.234375,-9.46
2019-07-31 08:11:23.250000,-13.6
2019-07-31 08:11:23.265625,-11.83
2019-07-31 08:11:23.281250,-5.04
2019-07-31 08:11:23.296875,3.17
2019-07-31 08:11:23.312500,8.55
2019-07-31 08:11:23.328125,8.81
2019-07-31 08:11:23.343750,4.61
2019-07-31 08:11:23.359375,-0.83
2019-07-31 08:11:23.375000,-3.84
2019-07-31 08:11:23.390625,-2.46
2019-07-31 08:11:23.406250,2.4
2019-07-31 08:11:23.421875,7.61
2019-07-31 08:11:23.437500,9.88
2019-07-31 08:11:23.453125,7.8
2019-07-31 08:11:23.468750,2.75
2019-07-31 08:11:23.484375,-2.03
2019-07-31 08:11:23.500000,-3.5
2019-07-31 08:11:23.515625,-0.74
2019-07-31 08:11:23.531250,4.6
2019-07-31 08:11:23.546875,9.24
2019-07-31 08:11:23.562500,10.35
2019-07-31 08:11:23.578125,7.2
2019-07-31 08:11:23.593750,1.63
2019-07-31 08:11:23.609375,-3.11
2019-07-31 08:11:23.625000,-4.25
2019-07-31 08:11:23.640625,-1.23
2019-07-31 08:11:23.656250,3.96
2019-07-31 08:11:23.671875,7.81
2019-07-31 08:11:23.687500,7.39
2019-07-31 08:11:23.703125,2.11
2019-07-31 08:11:23.718750,-5.78
2019-07-31 08:11:23.734375,-12.33
2019-07-31 08:11:23.750000,-14.18
2019-07-31 08:11:23.765625,-10.31
2019-07-31 08:11:23.781250,-2.59
2019-07-31 08:11:23.796875,5.17
2019-07-31 08:11:23.812500,9.3
2019-07-31 08:11:23.828125,8.23
2019-07-31 08:11:23.843750,3.24
2019-07-31 08:11:23.859375,-2.26
2019-07-31 08:11:23.875000,-4.79
2019-07-31 08:11:23.890625,-2.85
2019-07-31 08:11:23.906250,2.29
2019-07-31 08:11:23.921875,7.24
2019-07-31 08:11:23.937500,8.78
2019-07-31 08:11:23.953125,5.69
2019-07-31 08:11:23.968750,-0.34
2019-07-31 08:11:23.984375,-5.82
2019-07-31 08:11:24.000000,-7.45
2019-07-31 08:11:24.015625,-4.12
2019-07-31 08:11:24.031250,2.45
2019-07-31 08:11:24.046875,8.67
2019-07-31 08:11:24.062500,11.09
2019-07-31 08:11:24.078125,8.38
2019-07-31 08:11:24.093750,2.01
2019-07-31 08:11:24.109375,-4.55
2019-07-31 08:11:24.125000,-7.84
2019-07-31 08:11:24.140625,-6.27
2019-07-31 08:11:24.156250,-0.93
2019-07-31 08:11:24.171875,5.07
2019-07-31 08:11:24.187500,8.38
2019-07-31 08:11:24.203125,7.14
2019-07-31 08:11:24.218750,2.05
2019-07-31 08:11:24.234375,-3.99
2019-07-31 08:11:24.250000,-7.46
2019-07-31 08:11:24.265625,-6.27
2019-07-31 08:11:24.281250,-0.97
2019-07-31 08:11:24.296875,5.54
2019-07-31 08:11:24.312500,9.8
2019-07-31 08:11:24.328125,9.82
2019-07-31 08:11:24.343750,6.32
2019-07-31 08:11:24.359375,2.33
2019-07-31 08:11:24.375000,1.29
2019-07-31 08:11:24.390625,4.91
2019-07-31 08:11:24.406250,11.99
2019-07-31 08:11:24.421875,19.05
2019-07-31 08:11:24.437500,22.51
2019-07-31 08:11:24.453125,20.69
2019-07-31 08:11:24.468750,14.93
2019-07-31 08:11:24.484375,8.79
2019-07-31 08:11:24.500000,5.8
2019-07-31 08:11:24.515625,7.52
2019-07-31 08:11:24.531250,12.83
2019-07-31 08:11:24.546875,18.7
2019-07-31 08:11:24.562500,22.12
2019-07-31 08:11:24.578125,21.91
2019-07-31 08:11:24.593750,19.35
2019-07-31 08:11:24.609375,17.38
2019-07-31 08:11:24.625000,18.75
2019-07-31 08:11:24.640625,24.29
2019-07-31 08:11:24.656250,32.31
2019-07-31 08:11:24.671875,39.58
2019-07-31 08:11:24.687500,43.17
2019-07-31 08:11:24.703125,42.13
2019-07-31 08:11:24.718750,38.08
2019-07-31 08:11:24.734375,34.29
2019-07-31 08:11:24.750000,34.01
2019-07-31 08:11:24.765625,38.61
2019-07-31 08:11:24.781250,46.77
2019-07-31 08:11:24.796875,55.01
2019-07-31 08:11:24.812500,59.36
2019-07-31 08:11:24.828125,57.34
2019-07-31 08:11:24.843750,49.03
2019-07-31 08:11:24.859375,36.85
2019-07-31 08:11:24.875000,24.15
2019-07-31 08:11:24.890625,13.53
2019-07-31 08:11:24.906250,5.71
2019-07-31 08:11:24.921875,-0.37
2019-07-31 08:11:24.937500,-6.43
2019-07-31 08:11:24.953125,-13.48
2019-07-31 08:11:24.968750,-20.99
2019-07-31 08:11:24.984375,-26.98
2019-07-31 08:11:25.000000,-29.37
2019-07-31 08:11:25.015625,-27.43
2019-07-31 08:11:25.031250,-22.6
2019-07-31 08:11:25.046875,-18.04
2019-07-31 08:11:25.062500,-17.17
2019-07-31 08:11:25.078125,-21.95
2019-07-31 08:11:25.093750,-31.96
2019-07-31 08:11:25.109375,-44.67
2019-07-31 08:11:25.125000,-56.85
2019-07-31 08:11:25.140625,-66.29
2019-07-31 08:11:25.156250,-73.0
2019-07-31 08:11:25.171875,-79.09
2019-07-31 08:11:25.187500,-87.6
2019-07-31 08:11:25.203125,-100.76
2019-07-31 08:11:25.218750,-118.78
2019-07-31 08:11:25.234375,-139.81
2019-07-31 08:11:25.250000,-160.86
2019-07-31 08:11:25.265625,-178.99
2019-07-31 08:11:25.281250,-192.23
2019-07-31 08:11:25.296875,-199.54
2019-07-31 08:11:25.312500,-200.32
2019-07-31 08:11:25.328125,-193.84
2019-07-31 08:11:25.343750,-179.16
2019-07-31 08:11:25.359375,-155.72
2019-07-31 08:11:25.375000,-124.06
2019-07-31 08:11:25.390625,-86.18
2019-07-31 08:11:25.406250,-45.46
2019-07-31 08:11:25.421875,-5.81
2019-07-31 08:11:25.437500,29.39
2019-07-31 08:11:25.453125,58.09
2019-07-31 08:11:25.468750,79.82
2019-07-31 08:11:25.484375,95.31
2019-07-31 08:11:25.500000,105.68
2019-07-31 08:11:25.515625,111.63
2019-07-31 08:11:25.531250,113.11
2019-07-31 08:11:25.546875,109.69
2019-07-31 08:11:25.562500,101.27
2019-07-31 08:11:25.578125,88.84
2019-07-31 08:11:25.593750,74.69
2019-07-31 08:11:25.609375,61.82
2019-07-31 08:11:25.625000,52.68
2019-07-31 08:11:25.640625,47.97
2019-07-31 08:11:25.656250,46.26
2019-07-31 08:11:25.671875,44.84
2019-07-31 08:11:25.687500,41.17
2019-07-31 08:11:25.703125,34.37
2019-07-31 08:11:25.718750,25.64
2019-07-31 08:11:25.734375,17.54
2019-07-31 08:11:25.750000,12.51
2019-07-31 08:11:25.765625,11.32
2019-07-31 08:11:25.781250,12.55
2019-07-31 08:11:25.796875,13.25
2019-07-31 08:11:25.812500,10.62
2019-07-31 08:11:25.828125,3.6
2019-07-31 08:11:25.843750,-6.32
2019-07-31 08:11:25.859375,-16.01
2019-07-31 08:11:25.875000,-22.39
2019-07-31 08:11:25.890625,-24.28
2019-07-31 08:11:25.906250,-23.18
2019-07-31 08:11:25.921875,-22.39
2019-07-31 08:11:25.937500,-25.16
2019-07-31 08:11:25.953125,-32.86
2019-07-31 08:11:25.968750,-44.2
2019-07-31 08:11:25.984375,-55.85
2019-07-31 08:11:26.000000,-64.38
2019-07-31 08:11:26.015625,-68.12
2019-07-31 08:11:26.031250,-68.22
2019-07-31 08:11:26.046875,-67.87
2019-07-31 08:11:26.062500,-70.44
2019-07-31 08:11:26.078125,-77.59
2019-07-31 08:11:26.093750,-88.43
2019-07-31 08:11:26.109375,-100.07
2019-07-31 08:11:26.125000,-109.2
2019-07-31 08:11:26.140625,-113.91
2019-07-31 08:11:26.156250,-114.6
2019-07-31 08:11:26.171875,-113.16
2019-07-31 08:11:26.187500,-111.34
2019-07-31 08:11:26.203125,-109.11
2019-07-31 08:11:26.218750,-104.47
2019-07-31 08:11:26.234375,-94.78
2019-07-31 08:11:26.250000,-78.87
2019-07-31 08:11:26.265625,-58.41
2019-07-31 08:11:26.281250,-37.53
2019-07-31 08:11:26.296875,-20.79
2019-07-31 08:11:26.312500,-10.41
2019-07-31 08:11:26.328125,-5.06
2019-07-31 08:11:26.343750,-0.27
2019-07-31 08:11:26.359375,9.22
2019-07-31 08:11:26.375000,27.04
2019-07-31 08:11:26.390625,53.83
2019-07-31 08:11:26.406250,87.31
2019-07-31 08:11:26.421875,123.91
2019-07-31 08:11:26.437500,160.54
2019-07-31 08:11:26.453125,195.56
2019-07-31 08:11:26.468750,228.48
2019-07-31 08:11:26.484375,258.96
2019-07-31 08:11:26.500000,285.8
2019-07-31 08:11:26.515625,306.58
2019-07-31 08:11:26.531250,318.31
2019-07-31 08:11:26.546875,318.41
2019-07-31 08:11:26.562500,306.42
2019-07-31 08:11:26.578125,283.88
2019-07-31 08:11:26.593750,253.96
2019-07-31 08:11:26.609375,220.39
2019-07-31 08:11:26.625000,186.38
2019-07-31 08:11:26.640625,153.69
2019-07-31 08:11:26.656250,122.54
2019-07-31 08:11:26.671875,92.25
2019-07-31 08:11:26.687500,61.75
2019-07-31 08:11:26.703125,29.84
2019-07-31 08:11:26.718750,-4.88
2019-07-31 08:11:26.734375,-43.82
2019-07-31 08:11:26.750000,-87.66
2019-07-31 08:11:26.765625,-134.67
2019-07-31 08:11:26.781250,-179.68
2019-07-31 08:11:26.796875,-214.78
2019-07-31 08:11:26.812500,-231.81
2019-07-31 08:11:26.828125,-226.51
2019-07-31 08:11:26.843750,-200.82
2019-07-31 08:11:26.859375,-162.78
2019-07-31 08:11:26.875000,-123.26
2019-07-31 08:11:26.890625,-91.85
2019-07-31 08:11:26.906250,-74.31
2019-07-31 08:11:26.921875,-72.61
2019-07-31 08:11:26.937500,-86.22
2019-07-31 08:11:26.953125,-113.23
2019-07-31 08:11:26.968750,-150.39
2019-07-31 08:11:26.984375,-192.24
2019-07-31 08:11:27.000000,-230.82
2019-07-31 08:11:27.015625,-256.9
2019-07-31 08:11:27.031250,-262.56
2019-07-31 08:11:27.046875,-243.9
2019-07-31 08:11:27.062500,-202.43
2019-07-31 08:11:27.078125,-144.55
2019-07-31 08:11:27.093750,-79.5
2019-07-31 08:11:27.109375,-17.1
2019-07-31 08:11:27.125000,34.78
2019-07-31 08:11:27.140625,71.74
2019-07-31 08:11:27.156250,93.59
2019-07-31 08:11:27.171875,104.16
2019-07-31 08:11:27.187500,109.87
2019-07-31 08:11:27.203125,117.17
2019-07-31 08:11:27.218750,130.1
2019-07-31 08:11:27.234375,149.07
2019-07-31 08:11:27.250000,171.33
2019-07-31 08:11:27.265625,193.11
2019-07-31 08:11:27.281250,211.77
2019-07-31 08:11:27.296875,226.66
2019-07-31 08:11:27.312500,238.31
2019-07-31 08:11:27.328125,247.46
2019-07-31 08:11:27.343750,254.2
2019-07-31 08:11:27.359375,257.74
2019-07-31 08:11:27.375000,256.92
2019-07-31 08:11:27.390625,251.04
2019-07-31 08:11:27.406250,240.31
2019-07-31 08:11:27.421875,225.9
2019-07-31 08:11:27.437500,209.85
2019-07-31 08:11:27.453125,193.52
2019-07-31 08:11:27.468750,177.54
2019-07-31 08:11:27.484375,161.63
2019-07-31 08:11:27.500000,145.02
2019-07-31 08:11:27.515625,126.72
2019-07-31 08:11:27.531250,106.12
2019-07-31 08:11:27.546875,83.33
2019-07-31 08:11:27.562500,59.18
2019-07-31 08:11:27.578125,34.43
2019-07-31 08:11:27.593750,9.59
2019-07-31 08:11:27.609375,-14.92
2019-07-31 08:11:27.625000,-38.46
2019-07-31 08:11:27.640625,-60.02
2019-07-31 08:11:27.656250,-78.19
2019-07-31 08:11:27.671875,-91.78
2019-07-31 08:11:27.687500,-100.61
2019-07-31 08:11:27.703125,-104.57
2019-07-31 08:11:27.718750,-105.05
2019-07-31 08:11:27.734375,-103.85
2019-07-31 08:11:27.750000,-101.94
2019-07-31 08:11:27.765625,-99.17
2019-07-31 08:11:27.781250,-94.89
2019-07-31 08:11:27.796875,-88.65
2019-07-31 08:11:27.812500,-80.93
2019-07-31 08:11:27.828125,-73.41
2019-07-31 08:11:27.843750,-67.55
2019-07-31 08:11:27.859375,-64.43
2019-07-31 08:11:27.875000,-64.12
2019-07-31 08:11:27.890625,-65.58
2019-07-31 08:11:27.906250,-67.79
2019-07-31 08:11:27.921875,-70.66
2019-07-31 08:11:27.937500,-74.84
2019-07-31 08:11:27.953125,-81.05
2019-07-31 08:11:27.968750,-89.48
2019-07-31 08:11:27.984375,-98.4
2019-07-31 08:11:28.000000,-104.8
2019-07-31 08:11:28.015625,-105.26
2019-07-31 08:11:28.031250,-96.88
2019-07-31 08:11:28.046875,-76.46
2019-07-31 08:11:28.062500,-44.01
2019-07-31 08:11:28.078125,-2.35
2019-07-31 08:11:28.093750,43.4
2019-07-31 08:11:28.109375,82.97
2019-07-31 08:11:28.125000,108.46
2019-07-31 08:11:28.140625,114.3
2019-07-31 08:11:28.156250,98.02
2019-07-31 08:11:28.171875,62.31
2019-07-31 08:11:28.187500,13.28
2019-07-31 08:11:28.203125,-40.41
2019-07-31 08:11:28.218750,-89.59
2019-07-31 08:11:28.234375,-124.8
2019-07-31 08:11:28.250000,-141.75
2019-07-31 08:11:28.265625,-141.34
2019-07-31 08:11:28.281250,-129.18
2019-07-31 08:11:28.296875,-112.21
2019-07-31 08:11:28.312500,-95.33
2019-07-31 08:11:28.328125,-80.18
2019-07-31 08:11:28.343750,-66.1
2019-07-31 08:11:28.359375,-51.91
2019-07-31 08:11:28.375000,-37.54
2019-07-31 08:11:28.390625,-24.57
2019-07-31 08:11:28.406250,-14.29
2019-07-31 08:11:28.421875,-7.08
2019-07-31 08:11:28.437500,-1.9
2019-07-31 08:11:28.453125,3.03
2019-07-31 08:11:28.468750,8.96
2019-07-31 08:11:28.484375,15.77
2019-07-31 08:11:28.500000,22.23
2019-07-31 08:11:28.515625,26.45
2019-07-31 08:11:28.531250,26.64
2019-07-31 08:11:28.546875,22.37
2019-07-31 08:11:28.562500,14.37
2019-07-31 08:11:28.578125,4.22
2019-07-31 08:11:28.593750,-6.37
2019-07-31 08:11:28.609375,-16.37
2019-07-31 08:11:28.625000,-25.81
2019-07-31 08:11:28.640625,-35.56
2019-07-31 08:11:28.656250,-46.91
2019-07-31 08:11:28.671875,-61.17
2019-07-31 08:11:28.687500,-78.79
2019-07-31 08:11:28.703125,-99.45
2019-07-31 08:11:28.718750,-122.26
2019-07-31 08:11:28.734375,-146.18
2019-07-31 08:11:28.750000,-170.49
2019-07-31 08:11:28.765625,-194.93
2019-07-31 08:11:28.781250,-219.48
2019-07-31 08:11:28.796875,-244.11
2019-07-31 08:11:28.812500,-268.57
2019-07-31 08:11:28.828125,-291.9
2019-07-31 08:11:28.843750,-312.56
2019-07-31 08:11:28.859375,-328.6
2019-07-31 08:11:28.875000,-338.1
2019-07-31 08:11:28.890625,-339.55
2019-07-31 08:11:28.906250,-332.79
2019-07-31 08:11:28.921875,-317.71
2019-07-31 08:11:28.937500,-294.65
2019-07-31 08:11:28.953125,-264.42
2019-07-31 08:11:28.968750,-228.18
2019-07-31 08:11:28.984375,-187.39
2019-07-31 08:11:29.000000,-143.8
2019-07-31 08:11:29.015625,-99.33
2019-07-31 08:11:29.031250,-55.96
2019-07-31 08:11:29.046875,-15.52
2019-07-31 08:11:29.062500,20.63
2019-07-31 08:11:29.078125,51.61
2019-07-31 08:11:29.093750,77.16
2019-07-31 08:11:29.109375,97.59
2019-07-31 08:11:29.125000,113.53
2019-07-31 08:11:29.140625,125.8
2019-07-31 08:11:29.156250,135.01
2019-07-31 08:11:29.171875,141.51
2019-07-31 08:11:29.187500,145.36
2019-07-31 08:11:29.203125,146.63
2019-07-31 08:11:29.218750,145.51
2019-07-31 08:11:29.234375,142.49
2019-07-31 08:11:29.250000,138.36
2019-07-31 08:11:29.265625,134.06
2019-07-31 08:11:29.281250,130.23
2019-07-31 08:11:29.296875,127.07
2019-07-31 08:11:29.312500,124.18
2019-07-31 08:11:29.328125,120.81
2019-07-31 08:11:29.343750,116.29
2019-07-31 08:11:29.359375,110.46
2019-07-31 08:11:29.375000,103.93
2019-07-31 08:11:29.390625,97.95
2019-07-31 08:11:29.406250,93.9
2019-07-31 08:11:29.421875,92.7
2019-07-31 08:11:29.437500,94.33
2019-07-31 08:11:29.453125,97.86
2019-07-31 08:11:29.468750,101.82
2019-07-31 08:11:29.484375,105.07
2019-07-31 08:11:29.500000,107.3
2019-07-31 08:11:29.515625,109.33
2019-07-31 08:11:29.531250,112.63
2019-07-31 08:11:29.546875,118.71
2019-07-31 08:11:29.562500,128.52
2019-07-31 08:11:29.578125,142.2
2019-07-31 08:11:29.593750,159.58
2019-07-31 08:11:29.609375,180.38
2019-07-31 08:11:29.625000,203.75
2019-07-31 08:11:29.640625,227.56
2019-07-31 08:11:29.656250,247.96
2019-07-31 08:11:29.671875,260.14
2019-07-31 08:11:29.687500,260.1
2019-07-31 08:11:29.703125,246.77
2019-07-31 08:11:29.718750,223.0
2019-07-31 08:11:29.734375,194.65
2019-07-31 08:11:29.750000,167.86
2019-07-31 08:11:29.765625,146.29
2019-07-31 08:11:29.781250,129.81
2019-07-31 08:11:29.796875,115.4
2019-07-31 08:11:29.812500,99.7
2019-07-31 08:11:29.828125,81.4
2019-07-31 08:11:29.843750,62.08
2019-07-31 08:11:29.859375,45.18
2019-07-31 08:11:29.875000,33.54
2019-07-31 08:11:29.890625,27.56
2019-07-31 08:11:29.906250,24.85
2019-07-31 08:11:29.921875,21.73
2019-07-31 08:11:29.937500,15.43
2019-07-31 08:11:29.953125,5.64
2019-07-31 08:11:29.968750,-5.37
2019-07-31 08:11:29.984375,-14.25
2019-07-31 08:11:30.000000,-18.45
2019-07-31 08:11:30.015625,-17.72
2019-07-31 08:11:30.031250,-14.35
2019-07-31 08:11:30.046875,-11.97
2019-07-31 08:11:30.062500,-13.62
2019-07-31 08:11:30.078125,-19.97
2019-07-31 08:11:30.093750,-28.8
2019-07-31 08:11:30.109375,-36.19
2019-07-31 08:11:30.125000,-38.6
2019-07-31 08:11:30.140625,-34.93
2019-07-31 08:11:30.156250,-27.32
2019-07-31 08:11:30.171875,-20.1
2019-07-31 08:11:30.187500,-17.45
2019-07-31 08:11:30.203125,-21.09
2019-07-31 08:11:30.218750,-29.13
2019-07-31 08:11:30.234375,-37.03
2019-07-31 08:11:30.250000,-40.15
2019-07-31 08:11:30.265625,-36.45
2019-07-31 08:11:30.281250,-27.8
2019-07-31 08:11:30.296875,-18.89
2019-07-31 08:11:30.312500,-14.53
2019-07-31 08:11:30.328125,-16.76
2019-07-31 08:11:30.343750,-23.78
2019-07-31 08:11:30.359375,-30.99
2019-07-31 08:11:30.375000,-33.82
2019-07-31 08:11:30.390625,-30.53
2019-07-31 08:11:30.406250,-23.17
2019-07-31 08:11:30.421875,-16.3
2019-07-31 08:11:30.437500,-14.11
2019-07-31 08:11:30.453125,-17.89
2019-07-31 08:11:30.468750,-25.24
2019-07-31 08:11:30.484375,-31.57
2019-07-31 08:11:30.500000,-32.8
2019-07-31 08:11:30.515625,-27.68
2019-07-31 08:11:30.531250,-18.56
2019-07-31 08:11:30.546875,-9.96
2019-07-31 08:11:30.562500,-6.06
2019-07-31 08:11:30.578125,-8.39
2019-07-31 08:11:30.593750,-15.13
2019-07-31 08:11:30.609375,-22.17
2019-07-31 08:11:30.625000,-25.42
2019-07-31 08:11:30.640625,-23.17
2019-07-31 08:11:30.656250,-16.98
2019-07-31 08:11:30.671875,-10.74
2019-07-31 08:11:30.687500,-8.41
2019-07-31 08:11:30.703125,-11.54
2019-07-31 08:11:30.718750,-18.3
2019-07-31 08:11:30.734375,-24.42
2019-07-31 08:11:30.750000,-25.68
2019-07-31 08:11:30.765625,-20.43
2019-07-31 08:11:30.781250,-10.67
2019-07-31 08:11:30.796875,-1.04
2019-07-31 08:11:30.812500,3.82
2019-07-31 08:11:30.828125,1.99
2019-07-31 08:11:30.843750,-4.66
2019-07-31 08:11:30.859375,-11.6
2019-07-31 08:11:30.875000,-14.34
2019-07-31 08:11:30.890625,-11.0
2019-07-31 08:11:30.906250,-3.33
2019-07-31 08:11:30.921875,4.25
2019-07-31 08:11:30.937500,7.36
2019-07-31 08:11:30.953125,4.36
2019-07-31 08:11:30.968750,-2.78
2019-07-31 08:11:30.984375,-9.56
2019-07-31 08:11:31.000000,-11.69
2019-07-31 08:11:31.015625,-7.58
2019-07-31 08:11:31.031250,0.57
2019-07-31 08:11:31.046875,8.07
2019-07-31 08:11:31.062500,10.37
2019-07-31 08:11:31.078125,5.82
2019-07-31 08:11:31.093750,-3.46
2019-07-31 08:11:31.109375,-12.75
2019-07-31 08:11:31.125000,-17.48
2019-07-31 08:11:31.140625,-15.88
2019-07-31 08:11:31.156250,-9.82
2019-07-31 08:11:31.171875,-3.48
2019-07-31 08:11:31.187500,-0.84
2019-07-31 08:11:31.203125,-3.37
2019-07-31 08:11:31.218750,-9.23
2019-07-31 08:11:31.234375,-14.46
2019-07-31 08:11:31.250000,-15.39
2019-07-31 08:11:31.265625,-10.86
2019-07-31 08:11:31.281250,-2.87
2019-07-31 08:11:31.296875,4.44
2019-07-31 08:11:31.312500,7.2
2019-07-31 08:11:31.328125,4.08
2019-07-31 08:11:31.343750,-3.03
2019-07-31 08:11:31.359375,-9.88
2019-07-31 08:11:31.375000,-12.41
2019-07-31 08:11:31.390625,-9.05
2019-07-31 08:11:31.406250,-1.74
2019-07-31 08:11:31.421875,5.22
2019-07-31 08:11:31.437500,7.6
2019-07-31 08:11:31.453125,3.82
2019-07-31 08:11:31.468750,-4.1
2019-07-31 08:11:31.484375,-11.62
2019-07-31 08:11:31.500000,-14.37
2019-07-31 08:11:31.515625,-10.69
2019-07-31 08:11:31.531250,-2.53
2019-07-31 08:11:31.546875,5.61
2019-07-31 08:11:31.562500,9.41
2019-07-31 08:11:31.578125,7.09
2019-07-31 08:11:31.593750,0.33
2019-07-31 08:11:31.609375,-6.83
2019-07-31 08:11:31.625000,-10.38
2019-07-31 08:11:31.640625,-8.67
2019-07-31 08:11:31.656250,-3.28
2019-07-31 08:11:31.671875,2.13
2019-07-31 08:11:31.687500,3.99
2019-07-31 08:11:31.703125,0.99
2019-07-31 08:11:31.718750,-5.14
2019-07-31 08:11:31.734375,-10.73
2019-07-31 08:11:31.750000,-12.13
2019-07-31 08:11:31.765625,-8.01
2019-07-31 08:11:31.781250,-0.11
2019-07-31 08:11:31.796875,7.5
2019-07-31 08:11:31.812500,10.72
2019-07-31 08:11:31.828125,7.66
2019-07-31 08:11:31.843750,-0.27
2019-07-31 08:11:31.859375,-9.0
2019-07-31 08:11:31.875000,-14.11
2019-07-31 08:11:31.890625,-13.28
2019-07-31 08:11:31.906250,-7.72
2019-07-31 08:11:31.921875,-1.33
2019-07-31 08:11:31.937500,1.61
2019-07-31 08:11:31.953125,-0.81
2019-07-31 08:11:31.968750,-6.78
2019-07-31 08:11:31.984375,-11.83
2019-07-31 08:11:32.000000,-11.61
2019-07-31 08:11:32.015625,-4.89
2019-07-31 08:11:32.031250,5.58
2019-07-31 08:11:32.046875,14.52
2019-07-31 08:11:32.062500,17.3
2019-07-31 08:11:32.078125,12.68
2019-07-31 08:11:32.093750,3.64
2019-07-31 08:11:32.109375,-4.42
2019-07-31 08:11:32.125000,-6.86
2019-07-31 08:11:32.140625,-2.44
2019-07-31 08:11:32.156250,5.97
2019-07-31 08:11:32.171875,13.31
2019-07-31 08:11:32.187500,15.28
2019-07-31 08:11:32.203125,10.75
2019-07-31 08:11:32.218750,2.28
2019-07-31 08:11:32.234375,-5.64
2019-07-31 08:11:32.250000,-9.1
2019-07-31 08:11:32.265625,-6.89
2019-07-31 08:11:32.281250,-1.01
2019-07-31 08:11:32.296875,4.5
2019-07-31 08:11:32.312500,5.96
2019-07-31 08:11:32.328125,2.07
2019-07-31 08:11:32.343750,-5.31
2019-07-31 08:11:32.359375,-12.11
2019-07-31 08:11:32.375000,-14.52
2019-07-31 08:11:32.390625,-11.09
2019-07-31 08:11:32.406250,-3.64
2019-07-31 08:11:32.421875,3.75
2019-07-31 08:11:32.437500,7.12
2019-07-31 08:11:32.453125,4.83
2019-07-31 08:11:32.468750,-1.5
2019-07-31 08:11:32.484375,-8.03
2019-07-31 08:11:32.500000,-10.8
2019-07-31 08:11:32.515625,-8.21
2019-07-31 08:11:32.531250,-1.99
2019-07-31 08:11:32.546875,3.98
2019-07-31 08:11:32.562500,5.97
2019-07-31 08:11:32.578125,2.62
2019-07-31 08:11:32.593750,-4.0
2019-07-31 08:11:32.609375,-9.73
2019-07-31 08:11:32.625000,-10.7
2019-07-31 08:11:32.640625,-5.68
2019-07-31 08:11:32.656250,3.01
2019-07-31 08:11:32.671875,10.73
2019-07-31 08:11:32.687500,13.19
2019-07-31 08:11:32.703125,8.89
2019-07-31 08:11:32.718750,0.06
2019-07-31 08:11:32.734375,-8.56
2019-07-31 08:11:32.750000,-12.49
2019-07-31 08:11:32.765625,-10.03
2019-07-31 08:11:32.781250,-3.11
2019-07-31 08:11:32.796875,3.94
2019-07-31 08:11:32.812500,6.99
2019-07-31 08:11:32.828125,4.47
2019-07-31 08:11:32.843750,-1.9
2019-07-31 08:11:32.859375,-8.29
2019-07-31 08:11:32.875000,-11.15
2019-07-31 08:11:32.890625,-9.19
2019-07-31 08:11:32.906250,-3.94
2019-07-31 08:11:32.921875,1.26
2019-07-31 08:11:32.937500,3.4
2019-07-31 08:11:32.953125,1.51
2019-07-31 08:11:32.968750,-2.9
2019-07-31 08:11:32.984375,-6.82
2019-07-31 08:11:33.000000,-7.47
2019-07-31 08:11:33.015625,-3.93
2019-07-31 08:11:33.031250,2.13
2019-07-31 08:11:33.046875,7.32
2019-07-31 08:11:33.062500,8.41
2019-07-31 08:11:33.078125,4.18
2019-07-31 08:11:33.093750,-3.72
2019-07-31 08:11:33.109375,-11.56
2019-07-31 08:11:33.125000,-15.52
2019-07-31 08:11:33.140625,-13.79
2019-07-31 08:11:33.156250,-7.51
2019-07-31 08:11:33.171875,-0.26
2019-07-31 08:11:33.187500,4.09
2019-07-31 08:11:33.203125,3.52
2019-07-31 08:11:33.218750,-0.89
2019-07-31 08:11:33.234375,-5.62
2019-07-31 08:11:33.250000,-6.87
2019-07-31 08:11:33.265625,-3.01
2019-07-31 08:11:33.281250,4.34
2019-07-31 08:11:33.296875,11.09
2019-07-31 08:11:33.312500,13.2
2019-07-31 08:11:33.328125,9.17
2019-07-31 08:11:33.343750,0.94
2019-07-31 08:11:33.359375,-7.04
2019-07-31 08:11:33.375000,-10.49
2019-07-31 08:11:33.390625,-7.79
2019-07-31 08:11:33.406250,-0.89
2019-07-31 08:11:33.421875,5.8
2019-07-31 08:11:33.437500,8.09
2019-07-31 08:11:33.453125,4.66
2019-07-31 08:11:33.468750,-2.25
2019-07-31 08:11:33.484375,-8.03
2019-07-31 08:11:33.500000,-8.74
2019-07-31 08:11:33.515625,-3.53
2019-07-31 08:11:33.531250,4.65
2019-07-31 08:11:33.546875,10.88
2019-07-31 08:11:33.562500,11.22
2019-07-31 08:11:33.578125,5.23
2019-07-31 08:11:33.593750,-3.7
2019-07-31 08:11:33.609375,-10.32
2019-07-31 08:11:33.625000,-10.53
2019-07-31 08:11:33.640625,-3.81
2019-07-31 08:11:33.656250,6.35
2019-07-31 08:11:33.671875,14.39
2019-07-31 08:11:33.687500,15.96
2019-07-31 08:11:33.703125,10.3
2019-07-31 08:11:33.718750,0.68
2019-07-31 08:11:33.734375,-7.55
2019-07-31 08:11:33.750000,-10.09
2019-07-31 08:11:33.765625,-6.07
2019-07-31 08:11:33.781250,1.65
2019-07-31 08:11:33.796875,8.24
2019-07-31 08:11:33.812500,9.76
2019-07-31 08:11:33.828125,5.43
2019-07-31 08:11:33.843750,-1.99
2019-07-31 08:11:33.859375,-7.86
2019-07-31 08:11:33.875000,-8.49
2019-07-31 08:11:33.890625,-3.38
2019-07-31 08:11:33.906250,4.55
2019-07-31 08:11:33.921875,10.67
2019-07-31 08:11:33.937500,11.57
2019-07-31 08:11:33.953125,7.09
2019-07-31 08:11:33.968750,0.15
2019-07-31 08:11:33.984375,-5.0
2019-07-31 08:11:34.000000,-5.54
2019-07-31 08:11:34.015625,-1.41
2019-07-31 08:11:34.031250,4.58
2019-07-31 08:11:34.046875,8.64
2019-07-31 08:11:34.062500,8.09
2019-07-31 08:11:34.078125,2.88
2019-07-31 08:11:34.093750,-4.38
2019-07-31 08:11:34.109375,-9.94
2019-07-31 08:11:34.125000,-10.92
2019-07-31 08:11:34.140625,-6.91
2019-07-31 08:11:34.156250,-0.17
2019-07-31 08:11:34.171875,5.58
2019-07-31 08:11:34.187500,7.15
2019-07-31 08:11:34.203125,3.68
2019-07-31 08:11:34.218750,-2.87
2019-07-31 08:11:34.234375,-8.63
2019-07-31 08:11:34.250000,-10.02
2019-07-31 08:11:34.265625,-5.94
2019-07-31 08:11:34.281250,1.44
2019-07-31 08:11:34.296875,7.77
2019-07-31 08:11:34.312500,9.12
2019-07-31 08:11:34.328125,4.39
2019-07-31 08:11:34.343750,-3.99
2019-07-31 08:11:34.359375,-11.42
2019-07-31 08:11:34.375000,-13.9
2019-07-31 08:11:34.390625,-10.43
2019-07-31 08:11:34.406250,-3.68
2019-07-31 08:11:34.421875,1.8
2019-07-31 08:11:34.437500,2.31
2019-07-31 08:11:34.453125,-2.58
2019-07-31 08:11:34.468750,-9.71
2019-07-31 08:11:34.484375,-14.19
2019-07-31 08:11:34.500000,-12.54
2019-07-31 08:11:34.515625,-4.8
2019-07-31 08:11:34.531250,5.34
2019-07-31 08:11:34.546875,12.6
2019-07-31 08:11:34.562500,13.29
2019-07-31 08:11:34.578125,7.47
2019-07-31 08:11:34.593750,-1.09
2019-07-31 08:11:34.609375,-7.13
2019-07-31 08:11:34.625000,-6.93
2019-07-31 08:11:34.640625,-0.44
2019-07-31 08:11:34.656250,8.7
2019-07-31 08:11:34.671875,15.28
2019-07-31 08:11:34.687500,15.43
2019-07-31 08:11:34.703125,8.77
2019-07-31 08:11:34.718750,-1.5
2019-07-31 08:11:34.734375,-10.27
2019-07-31 08:11:34.750000,-13.35
2019-07-31 08:11:34.765625,-9.81
2019-07-31 08:11:34.781250,-2.21
2019-07-31 08:11:34.796875,4.77
2019-07-31 08:11:34.812500,7.15
2019-07-31 08:11:34.828125,3.83
2019-07-31 08:11:34.843750,-2.86
2019-07-31 08:11:34.859375,-8.57
2019-07-31 08:11:34.875000,-9.56
2019-07-31 08:11:34.890625,-4.94
2019-07-31 08:11:34.906250,2.69
2019-07-31 08:11:34.921875,8.89
2019-07-31 08:11:34.937500,9.95
2019-07-31 08:11:34.953125,5.21
2019-07-31 08:11:34.968750,-2.4
2019-07-31 08:11:34.984375,-8.18
2019-07-31 08:11:35.000000,-8.5
2019-07-31 08:11:35.015625,-3.05
2019-07-31 08:11:35.031250,5.07
2019-07-31 08:11:35.046875,11.06
2019-07-31 08:11:35.062500,11.29
2019-07-31 08:11:35.078125,5.41
2019-07-31 08:11:35.093750,-3.5
2019-07-31 08:11:35.109375,-10.59
2019-07-31 08:11:35.125000,-12.03
2019-07-31 08:11:35.140625,-7.24
2019-07-31 08:11:35.156250,0.68
2019-07-31 08:11:35.171875,6.83
2019-07-31 08:11:35.187500,7.32
2019-07-31 08:11:35.203125,1.62
2019-07-31 08:11:35.218750,-7.06
2019-07-31 08:11:35.234375,-13.66
2019-07-31 08:11:35.250000,-14.17
2019-07-31 08:11:35.265625,-8.2
2019-07-31 08:11:35.281250,0.98
2019-07-31 08:11:35.296875,8.19
2019-07-31 08:11:35.312500,9.5
2019-07-31 08:11:35.328125,4.41
2019-07-31 08:11:35.343750,-3.84
2019-07-31 08:11:35.359375,-10.23
2019-07-31 08:11:35.375000,-10.95
2019-07-31 08:11:35.390625,-5.6
2019-07-31 08:11:35.406250,2.57
2019-07-31 08:11:35.421875,8.81
2019-07-31 08:11:35.437500,9.76
2019-07-31 08:11:35.453125,5.34
2019-07-31 08:11:35.468750,-1.21
2019-07-31 08:11:35.484375,-5.46
2019-07-31 08:11:35.500000,-4.45
2019-07-31 08:11:35.515625,1.56
2019-07-31 08:11:35.531250,9.35
2019-07-31 08:11:35.546875,14.51
2019-07-31 08:11:35.562500,13.93
2019-07-31 08:11:35.578125,7.76
2019-07-31 08:11:35.593750,-0.75
2019-07-31 08:11:35.609375,-7.04
2019-07-31 08:11:35.625000,-7.72
2019-07-31 08:11:35.640625,-2.65
2019-07-31 08:11:35.656250,5.02
2019-07-31 08:11:35.671875,10.59
2019-07-31 08:11:35.687500,10.59
2019-07-31 08:11:35.703125,4.53
2019-07-31 08:11:35.718750,-4.66
2019-07-31 08:11:35.734375,-12.4
2019-07-31 08:11:35.750000,-14.83
2019-07-31 08:11:35.765625,-11.04
2019-07-31 08:11:35.781250,-3.6
2019-07-31 08:11:35.796875,2.97
2019-07-31 08:11:35.812500,4.92
2019-07-31 08:11:35.828125,1.38
2019-07-31 08:11:35.843750,-5.02
2019-07-31 08:11:35.859375,-9.9
2019-07-31 08:11:35.875000,-9.72
2019-07-31 08:11:35.890625,-3.87
2019-07-31 08:11:35.906250,4.9
2019-07-31 08:11:35.921875,12.01
2019-07-31 08:11:35.937500,13.83
2019-07-31 08:11:35.953125,9.63
2019-07-31 08:11:35.968750,2.07
2019-07-31 08:11:35.984375,-4.25
2019-07-31 08:11:36.000000,-5.63
2019-07-31 08:11:36.015625,-1.38
2019-07-31 08:11:36.031250,5.65
2019-07-31 08:11:36.046875,10.89
2019-07-31 08:11:36.062500,10.71
2019-07-31 08:11:36.078125,4.63
2019-07-31 08:11:36.093750,-4.32
2019-07-31 08:11:36.109375,-11.39
2019-07-31 08:11:36.125000,-12.84
2019-07-31 08:11:36.140625,-8.18
2019-07-31 08:11:36.156250,-0.37
2019-07-31 08:11:36.171875,5.87
2019-07-31 08:11:36.187500,7.0
2019-07-31 08:11:36.203125,2.66
2019-07-31 08:11:36.218750,-4.22
2019-07-31 08:11:36.234375,-9.34
2019-07-31 08:11:36.250000,-9.8
2019-07-31 08:11:36.265625,-5.81
2019-07-31 08:11:36.281250,-0.45
2019-07-31 08:11:36.296875,2.44
2019-07-31 08:11:36.312500,0.64
2019-07-31 08:11:36.328125,-5.02
2019-07-31 08:11:36.343750,-10.99
2019-07-31 08:11:36.359375,-13.24
2019-07-31 08:11:36.375000,-9.58
2019-07-31 08:11:36.390625,-1.2
2019-07-31 08:11:36.406250,7.86
2019-07-31 08:11:36.421875,12.93
2019-07-31 08:11:36.437500,11.38
2019-07-31 08:11:36.453125,4.34
2019-07-31 08:11:36.468750,-3.94
2019-07-31 08:11:36.484375,-8.48
2019-07-31 08:11:36.500000,-6.41
2019-07-31 08:11:36.515625,1.33
2019-07-31 08:11:36.531250,10.48
2019-07-31 08:11:36.546875,15.89
2019-07-31 08:11:36.562500,14.57
2019-07-31 08:11:36.578125,7.35
2019-07-31 08:11:36.593750,-1.51
2019-07-31 08:11:36.609375,-6.89
2019-07-31 08:11:36.625000,-5.85
2019-07-31 08:11:36.640625,0.76
2019-07-31 08:11:36.656250,8.85
2019-07-31 08:11:36.671875,13.57
2019-07-31 08:11:36.687500,12.23
2019-07-31 08:11:36.703125,5.68
2019-07-31 08:11:36.718750,-2.38
2019-07-31 08:11:36.734375,-7.54
2019-07-31 08:11:36.750000,-7.23
2019-07-31 08:11:36.765625,-2.11
2019-07-31 08:11:36.781250,4.46
2019-07-31 08:11:36.796875,8.38
2019-07-31 08:11:36.812500,7.21
2019-07-31 08:11:36.828125,1.43
2019-07-31 08:11:36.843750,-5.72
2019-07-31 08:11:36.859375,-10.29
2019-07-31 08:11:36.875000,-9.79
2019-07-31 08:11:36.890625,-4.63
2019-07-31 08:11:36.906250,2.11
2019-07-31 08:11:36.921875,6.47
2019-07-31 08:11:36.937500,5.73
2019-07-31 08:11:36.953125,-0.01
2019-07-31 08:11:36.968750,-7.89
2019-07-31 08:11:36.984375,-13.78
2019-07-31 08:11:37.000000,-14.69
2019-07-31 08:11:37.015625,-10.48
2019-07-31 08:11:37.031250,-4.02
2019-07-31 08:11:37.046875,0.47
2019-07-31 08:11:37.062500,-0.1
2019-07-31 08:11:37.078125,-5.73
2019-07-31 08:11:37.093750,-13.25
2019-07-31 08:11:37.109375,-18.22
2019-07-31 08:11:37.125000,-17.52
2019-07-31 08:11:37.140625,-11.29
2019-07-31 08:11:37.156250,-2.86
2019-07-31 08:11:37.171875,3.03
2019-07-31 08:11:37.187500,3.06
2019-07-31 08:11:37.203125,-2.82
2019-07-31 08:11:37.218750,-11.34
2019-07-31 08:11:37.234375,-17.95
2019-07-31 08:11:37.250000,-19.44
2019-07-31 08:11:37.265625,-15.82
2019-07-31 08:11:37.281250,-10.28
2019-07-31 08:11:37.296875,-7.06
2019-07-31 08:11:37.312500,-8.92
2019-07-31 08:11:37.328125,-15.62
2019-07-31 08:11:37.343750,-24.01
2019-07-31 08:11:37.359375,-30.06
2019-07-31 08:11:37.375000,-31.14
2019-07-31 08:11:37.390625,-27.66
2019-07-31 08:11:37.406250,-22.88
2019-07-31 08:11:37.421875,-21.1
2019-07-31 08:11:37.437500,-25.14
2019-07-31 08:11:37.453125,-34.67
2019-07-31 08:11:37.468750,-46.2
2019-07-31 08:11:37.484375,-55.1
2019-07-31 08:11:37.500000,-58.43
2019-07-31 08:11:37.515625,-56.66
2019-07-31 08:11:37.531250,-53.58
2019-07-31 08:11:37.546875,-53.93
2019-07-31 08:11:37.562500,-60.7
2019-07-31 08:11:37.578125,-73.2
2019-07-31 08:11:37.593750,-87.3
2019-07-31 08:11:37.609375,-97.86
2019-07-31 08:11:37.625000,-101.76
2019-07-31 08:11:37.640625,-99.95
2019-07-31 08:11:37.656250,-97.0
2019-07-31 08:11:37.671875,-98.58
2019-07-31 08:11:37.687500,-107.86
2019-07-31 08:11:37.703125,-123.51
2019-07-31 08:11:37.718750,-140.32
2019-07-31 08:11:37.734375,-151.99
2019-07-31 08:11:37.750000,-154.28
2019-07-31 08:11:37.765625,-146.69
2019-07-31 08:11:37.781250,-131.87
2019-07-31 08:11:37.796875,-113.36
2019-07-31 08:11:37.812500,-93.32
2019-07-31 08:11:37.828125,-71.75
2019-07-31 08:11:37.843750,-47.37
2019-07-31 08:11:37.859375,-19.3
2019-07-31 08:11:37.875000,12.1
2019-07-31 08:11:37.890625,45.34
2019-07-31 08:11:37.906250,79.19
2019-07-31 08:11:37.921875,113.91
2019-07-31 08:11:37.937500,151.2
2019-07-31 08:11:37.953125,193.33
2019-07-31 08:11:37.968750,241.53
2019-07-31 08:11:37.984375,294.84
2019-07-31 08:11:38.000000,350.06
2019-07-31 08:11:38.015625,402.8
2019-07-31 08:11:38.031250,448.58
2019-07-31 08:11:38.046875,483.85
2019-07-31 08:11:38.062500,506.24
2019-07-31 08:11:38.078125,514.27
2019-07-31 08:11:38.093750,507.73
2019-07-31 08:11:38.109375,487.4
2019-07-31 08:11:38.125000,454.76
2019-07-31 08:11:38.140625,411.55
2019-07-31 08:11:38.156250,359.78
2019-07-31 08:11:38.171875,301.33
2019-07-31 08:11:38.187500,237.96
2019-07-31 08:11:38.203125,172.86
2019-07-31 08:11:38.218750,107.69
2019-07-31 08:11:38.234375,43.41
2019-07-31 08:11:38.250000,-19.22
2019-07-31 08:11:38.265625,-79.44
2019-07-31 08:11:38.281250,-136.35
2019-07-31 08:11:38.296875,-188.76
2019-07-31 08:11:38.312500,-235.23
2019-07-31 08:11:38.328125,-274.21
2019-07-31 08:11:38.343750,-304.21
2019-07-31 08:11:38.359375,-324.3
2019-07-31 08:11:38.375000,-333.83
2019-07-31 08:11:38.390625,-332.64
2019-07-31 08:11:38.406250,-320.82
2019-07-31 08:11:38.421875,-299.19
2019-07-31 08:11:38.437500,-269.3
2019-07-31 08:11:38.453125,-233.27
2019-07-31 08:11:38.468750,-193.64
2019-07-31 08:11:38.484375,-153.03
2019-07-31 08:11:38.500000,-114.08
2019-07-31 08:11:38.515625,-78.85
2019-07-31 08:11:38.531250,-48.71
2019-07-31 08:11:38.546875,-24.32
2019-07-31 08:11:38.562500,-5.72
2019-07-31 08:11:38.578125,7.56
2019-07-31 08:11:38.593750,16.3
2019-07-31 08:11:38.609375,21.44
2019-07-31 08:11:38.625000,23.93
2019-07-31 08:11:38.640625,24.46
2019-07-31 08:11:38.656250,23.64
2019-07-31 08:11:38.671875,21.97
2019-07-31 08:11:38.687500,19.84
2019-07-31 08:11:38.703125,17.45
2019-07-31 08:11:38.718750,14.94
2019-07-31 08:11:38.734375,12.45
2019-07-31 08:11:38.750000,10.04
2019-07-31 08:11:38.765625,7.82
2019-07-31 08:11:38.781250,5.77
2019-07-31 08:11:38.796875,3.92
2019-07-31 08:11:38.812500,2.31
2019-07-31 08:11:38.828125,0.96
2019-07-31 08:11:38.843750,-0.2
2019-07-31 08:11:38.859375,-1.2
2019-07-31 08:11:38.875000,-2.08
2019-07-31 08:11:38.890625,-2.89
2019-07-31 08:11:38.906250,-3.62
2019-07-31 08:11:38.921875,-4.28
2019-07-31 08:11:38.937500,-4.87
2019-07-31 08:11:38.953125,-5.36
2019-07-31 08:11:38.968750,-5.75
2019-07-31 08:11:38.984375,-6.04
2019-07-31 08:11:39.000000,-6.25
2019-07-31 08:11:39.015625,-6.4
2019-07-31 08:11:39.031250,-6.5
2019-07-31 08:11:39.046875,-6.55
2019-07-31 08:11:39.062500,-6.53
2019-07-31 08:11:39.078125,-6.44
2019-07-31 08:11:39.093750,-6.24
2019-07-31 08:11:39.109375,-5.95
2019-07-31 08:11:39.125000,-5.56
2019-07-31 08:11:39.140625,-5.08
2019-07-31 08:11:39.156250,-4.51
2019-07-31 08:11:39.171875,-3.87
2019-07-31 08:11:39.187500,-3.14
2019-07-31 08:11:39.203125,-2.34
2019-07-31 08:11:39.218750,-1.46
2019-07-31 08:11:39.234375,-0.5
2019-07-31 08:11:39.250000,0.52
2019-07-31 08:11:39.265625,1.55
2019-07-31 08:11:39.281250,2.58
2019-07-31 08:11:39.296875,3.64
2019-07-31 08:11:39.312500,4.6
2019-07-31 08:11:39.328125,5.36
2019-07-31 08:11:39.343750,5.88
2019-07-31 08:11:39.359375,6.11
2019-07-31 08:11:39.375000,6.07
2019-07-31 08:11:39.390625,5.8
2019-07-31 08:11:39.406250,5.36
2019-07-31 08:11:39.421875,4.9
2019-07-31 08:11:39.437500,4.57
2019-07-31 08:11:39.453125,4.48
2019-07-31 08:11:39.468750,4.7
2019-07-31 08:11:39.484375,5.18
2019-07-31 08:11:39.500000,5.79
2019-07-31 08:11:39.515625,6.27
2019-07-31 08:11:39.531250,6.25
2019-07-31 08:11:39.546875,5.26
2019-07-31 08:11:39.562500,2.91
2019-07-31 08:11:39.578125,-1.15
2019-07-31 08:11:39.593750,-7.21
2019-07-31 08:11:39.609375,-15.41
2019-07-31 08:11:39.625000,-25.62
2019-07-31 08:11:39.640625,-37.47
2019-07-31 08:11:39.656250,-50.35
2019-07-31 08:11:39.671875,-63.4
2019-07-31 08:11:39.687500,-75.68
2019-07-31 08:11:39.703125,-86.05
2019-07-31 08:11:39.718750,-93.5
2019-07-31 08:11:39.734375,-97.2
2019-07-31 08:11:39.750000,-96.65
2019-07-31 08:11:39.765625,-91.75
2019-07-31 08:11:39.781250,-82.79
2019-07-31 08:11:39.796875,-70.45
2019-07-31 08:11:39.812500,-55.27
2019-07-31 08:11:39.828125,-38.86
2019-07-31 08:11:39.843750,-22.53
2019-07-31 08:11:39.859375,-7.4
2019-07-31 08:11:39.875000,5.75
2019-07-31 08:11:39.890625,16.44
2019-07-31 08:11:39.906250,24.51
2019-07-31 08:11:39.921875,30.08
2019-07-31 08:11:39.937500,33.47
2019-07-31 08:11:39.953125,35.1
2019-07-31 08:11:39.968750,35.38
2019-07-31 08:11:39.984375,34.79
2019-07-31 08:11:40.000000,33.77
2019-07-31 08:11:40.015625,32.59
2019-07-31 08:11:40.031250,31.5
2019-07-31 08:11:40.046875,30.51
2019-07-31 08:11:40.062500,29.63
2019-07-31 08:11:40.078125,28.85
2019-07-31 08:11:40.093750,28.15
2019-07-31 08:11:40.109375,27.44
2019-07-31 08:11:40.125000,26.76
2019-07-31 08:11:40.140625,26.16
2019-07-31 08:11:40.156250,25.69
2019-07-31 08:11:40.171875,25.34
2019-07-31 08:11:40.187500,25.11
2019-07-31 08:11:40.203125,24.97
2019-07-31 08:11:40.218750,24.91
2019-07-31 08:11:40.234375,24.89
2019-07-31 08:11:40.250000,24.83
2019-07-31 08:11:40.265625,24.69
2019-07-31 08:11:40.281250,24.4
2019-07-31 08:11:40.296875,23.89
2019-07-31 08:11:40.312500,23.13
2019-07-31 08:11:40.328125,22.09
2019-07-31 08:11:40.343750,20.79
2019-07-31 08:11:40.359375,19.27
2019-07-31 08:11:40.375000,17.65
2019-07-31 08:11:40.390625,16.11
2019-07-31 08:11:40.406250,14.81
2019-07-31 08:11:40.421875,13.97
2019-07-31 08:11:40.437500,13.81
2019-07-31 08:11:40.453125,14.5
2019-07-31 08:11:40.468750,16.13
2019-07-31 08:11:40.484375,18.81
2019-07-31 08:11:40.500000,22.5
2019-07-31 08:11:40.515625,27.13
2019-07-31 08:11:40.531250,32.48
2019-07-31 08:11:40.546875,38.19
2019-07-31 08:11:40.562500,43.96
2019-07-31 08:11:40.578125,49.43
2019-07-31 08:11:40.593750,54.27
2019-07-31 08:11:40.609375,58.12
2019-07-31 08:11:40.625000,60.75
2019-07-31 08:11:40.640625,61.94
2019-07-31 08:11:40.656250,61.55
2019-07-31 08:11:40.671875,59.47
2019-07-31 08:11:40.687500,55.43
2019-07-31 08:11:40.703125,49.34
2019-07-31 08:11:40.718750,41.22
2019-07-31 08:11:40.734375,31.25
2019-07-31 08:11:40.750000,19.79
2019-07-31 08:11:40.765625,7.5
2019-07-31 08:11:40.781250,-4.83
2019-07-31 08:11:40.796875,-16.5
2019-07-31 08:11:40.812500,-26.81
2019-07-31 08:11:40.828125,-35.57
2019-07-31 08:11:40.843750,-42.61
2019-07-31 08:11:40.859375,-48.02
2019-07-31 08:11:40.875000,-52.05
2019-07-31 08:11:40.890625,-54.91
2019-07-31 08:11:40.906250,-56.72
2019-07-31 08:11:40.921875,-57.51
2019-07-31 08:11:40.937500,-57.4
2019-07-31 08:11:40.953125,-55.64
2019-07-31 08:11:40.968750,-53.64
2019-07-31 08:11:40.984375,-52.35
2019-07-31 08:11:41.000000,-52.46
2019-07-31 08:11:41.015625,-54.33
2019-07-31 08:11:41.031250,-57.69
2019-07-31 08:11:41.046875,-61.78
2019-07-31 08:11:41.062500,-65.51
2019-07-31 08:11:41.078125,-67.97
2019-07-31 08:11:41.093750,-68.69
2019-07-31 08:11:41.109375,-68.24
2019-07-31 08:11:41.125000,-67.57
2019-07-31 08:11:41.140625,-67.83
2019-07-31 08:11:41.156250,-69.8
2019-07-31 08:11:41.171875,-73.52
2019-07-31 08:11:41.187500,-78.18
2019-07-31 08:11:41.203125,-82.54
2019-07-31 08:11:41.218750,-86.03
2019-07-31 08:11:41.234375,-87.84
2019-07-31 08:11:41.250000,-88.59
2019-07-31 08:11:41.265625,-89.24
2019-07-31 08:11:41.281250,-90.92
2019-07-31 08:11:41.296875,-94.59
2019-07-31 08:11:41.312500,-100.87
2019-07-31 08:11:41.328125,-110.12
2019-07-31 08:11:41.343750,-121.94
2019-07-31 08:11:41.359375,-134.64
2019-07-31 08:11:41.375000,-144.84
2019-07-31 08:11:41.390625,-148.17
2019-07-31 08:11:41.406250,-140.45
2019-07-31 08:11:41.421875,-119.9
2019-07-31 08:11:41.437500,-88.46
2019-07-31 08:11:41.453125,-51.38
2019-07-31 08:11:41.468750,-15.28
2019-07-31 08:11:41.484375,14.45
2019-07-31 08:11:41.500000,36.22
2019-07-31 08:11:41.515625,51.6
2019-07-31 08:11:41.531250,63.8
2019-07-31 08:11:41.546875,75.72
2019-07-31 08:11:41.562500,88.35
2019-07-31 08:11:41.578125,100.79
2019-07-31 08:11:41.593750,111.3
2019-07-31 08:11:41.609375,118.77
2019-07-31 08:11:41.625000,123.13
2019-07-31 08:11:41.640625,125.06
2019-07-31 08:11:41.656250,125.16
2019-07-31 08:11:41.671875,123.34
2019-07-31 08:11:41.687500,119.07
2019-07-31 08:11:41.703125,111.83
2019-07-31 08:11:41.718750,101.56
2019-07-31 08:11:41.734375,89.15
2019-07-31 08:11:41.750000,76.12
2019-07-31 08:11:41.765625,64.1
2019-07-31 08:11:41.781250,54.24
2019-07-31 08:11:41.796875,46.88
2019-07-31 08:11:41.812500,41.69
2019-07-31 08:11:41.828125,38.05
2019-07-31 08:11:41.843750,35.18
2019-07-31 08:11:41.859375,32.76
2019-07-31 08:11:41.875000,30.69
2019-07-31 08:11:41.890625,29.3
2019-07-31 08:11:41.906250,28.85
2019-07-31 08:11:41.921875,29.71
2019-07-31 08:11:41.937500,32.08
2019-07-31 08:11:41.953125,35.87
2019-07-31 08:11:41.968750,40.48
2019-07-31 08:11:41.984375,44.71
2019-07-31 08:11:42.000000,47.23
2019-07-31 08:11:42.015625,47.16
2019-07-31 08:11:42.031250,44.56
2019-07-31 08:11:42.046875,40.2
2019-07-31 08:11:42.062500,34.84
2019-07-31 08:11:42.078125,28.46
2019-07-31 08:11:42.093750,20.12
2019-07-31 08:11:42.109375,8.71
2019-07-31 08:11:42.125000,-6.03
2019-07-31 08:11:42.140625,-22.52
2019-07-31 08:11:42.156250,-37.39
2019-07-31 08:11:42.171875,-46.83
2019-07-31 08:11:42.187500,-47.74
2019-07-31 08:11:42.203125,-40.02
2019-07-31 08:11:42.218750,-26.49
2019-07-31 08:11:42.234375,-11.16
2019-07-31 08:11:42.250000,2.59
2019-07-31 08:11:42.265625,13.17
2019-07-31 08:11:42.281250,20.94
2019-07-31 08:11:42.296875,27.13
2019-07-31 08:11:42.312500,32.98
2019-07-31 08:11:42.328125,39.07
2019-07-31 08:11:42.343750,44.93
2019-07-31 08:11:42.359375,49.64
2019-07-31 08:11:42.375000,52.25
2019-07-31 08:11:42.390625,52.55
2019-07-31 08:11:42.406250,50.59
2019-07-31 08:11:42.421875,46.96
2019-07-31 08:11:42.437500,42.32
2019-07-31 08:11:42.453125,37.42
2019-07-31 08:11:42.468750,32.66
2019-07-31 08:11:42.484375,27.79
2019-07-31 08:11:42.500000,22.21
2019-07-31 08:11:42.515625,14.2
2019-07-31 08:11:42.531250,1.77
2019-07-31 08:11:42.546875,-17.26
2019-07-31 08:11:42.562500,-43.91
2019-07-31 08:11:42.578125,-76.72
2019-07-31 08:11:42.593750,-110.88
2019-07-31 08:11:42.609375,-139.01
2019-07-31 08:11:42.625000,-152.6
2019-07-31 08:11:42.640625,-147.65
2019-07-31 08:11:42.656250,-125.41
2019-07-31 08:11:42.671875,-91.86
2019-07-31 08:11:42.687500,-55.82
2019-07-31 08:11:42.703125,-25.34
2019-07-31 08:11:42.718750,-5.74
2019-07-31 08:11:42.734375,0.88
2019-07-31 08:11:42.750000,-4.47
2019-07-31 08:11:42.765625,-19.52
2019-07-31 08:11:42.781250,-40.49
2019-07-31 08:11:42.796875,-61.83
2019-07-31 08:11:42.812500,-77.12
2019-07-31 08:11:42.828125,-81.31
2019-07-31 08:11:42.843750,-72.78
2019-07-31 08:11:42.859375,-54.28
2019-07-31 08:11:42.875000,-31.73
2019-07-31 08:11:42.890625,-11.4
2019-07-31 08:11:42.906250,3.28
2019-07-31 08:11:42.921875,13.16
2019-07-31 08:11:42.937500,22.13
2019-07-31 08:11:42.953125,34.35
2019-07-31 08:11:42.968750,50.66
2019-07-31 08:11:42.984375,67.86
2019-07-31 08:11:43.000000,80.18
2019-07-31 08:11:43.015625,82.24
2019-07-31 08:11:43.031250,72.04
2019-07-31 08:11:43.046875,51.99
2019-07-31 08:11:43.062500,28.35
2019-07-31 08:11:43.078125,8.19
2019-07-31 08:11:43.093750,-1.71
2019-07-31 08:11:43.109375,0.54
2019-07-31 08:11:43.125000,12.04
2019-07-31 08:11:43.140625,27.46
2019-07-31 08:11:43.156250,41.88
2019-07-31 08:11:43.171875,52.82
2019-07-31 08:11:43.187500,60.19
2019-07-31 08:11:43.203125,65.46
2019-07-31 08:11:43.218750,70.02
2019-07-31 08:11:43.234375,74.08
2019-07-31 08:11:43.250000,76.44
2019-07-31 08:11:43.265625,75.77
2019-07-31 08:11:43.281250,71.43
2019-07-31 08:11:43.296875,63.72
2019-07-31 08:11:43.312500,53.43
2019-07-31 08:11:43.328125,41.4
2019-07-31 08:11:43.343750,27.03
2019-07-31 08:11:43.359375,9.27
2019-07-31 08:11:43.375000,-12.64
2019-07-31 08:11:43.390625,-38.32
2019-07-31 08:11:43.406250,-65.0
2019-07-31 08:11:43.421875,-87.88
2019-07-31 08:11:43.437500,-101.83
2019-07-31 08:11:43.453125,-102.46
2019-07-31 08:11:43.468750,-91.29
2019-07-31 08:11:43.484375,-73.53
2019-07-31 08:11:43.500000,-55.84
2019-07-31 08:11:43.515625,-43.53
2019-07-31 08:11:43.531250,-38.68
2019-07-31 08:11:43.546875,-39.94
2019-07-31 08:11:43.562500,-44.16
2019-07-31 08:11:43.578125,-48.66
2019-07-31 08:11:43.593750,-52.36
2019-07-31 08:11:43.609375,-56.1
2019-07-31 08:11:43.625000,-60.59
2019-07-31 08:11:43.640625,-65.31
2019-07-31 08:11:43.656250,-68.45
2019-07-31 08:11:43.671875,-67.58
2019-07-31 08:11:43.687500,-60.59
2019-07-31 08:11:43.703125,-46.49
2019-07-31 08:11:43.718750,-26.3
2019-07-31 08:11:43.734375,-2.35
2019-07-31 08:11:43.750000,20.75
2019-07-31 08:11:43.765625,37.65
2019-07-31 08:11:43.781250,43.95
2019-07-31 08:11:43.796875,38.16
2019-07-31 08:11:43.812500,22.91
2019-07-31 08:11:43.828125,4.43
2019-07-31 08:11:43.843750,-9.97
2019-07-31 08:11:43.859375,-14.47
2019-07-31 08:11:43.875000,-8.08
2019-07-31 08:11:43.890625,5.28
2019-07-31 08:11:43.906250,19.55
2019-07-31 08:11:43.921875,29.92
2019-07-31 08:11:43.937500,34.99
2019-07-31 08:11:43.953125,36.8
2019-07-31 08:11:43.968750,38.77
2019-07-31 08:11:43.984375,43.05
2019-07-31 08:11:44.000000,49.31
2019-07-31 08:11:44.015625,55.04
2019-07-31 08:11:44.031250,57.13
2019-07-31 08:11:44.046875,53.89
2019-07-31 08:11:44.062500,45.61
2019-07-31 08:11:44.078125,33.89
2019-07-31 08:11:44.093750,20.62
2019-07-31 08:11:44.109375,6.79
2019-07-31 08:11:44.125000,-6.76
2019-07-31 08:11:44.140625,-19.45
2019-07-31 08:11:44.156250,-29.58
2019-07-31 08:11:44.171875,-34.9
2019-07-31 08:11:44.187500,-33.59
2019-07-31 08:11:44.203125,-25.77
2019-07-31 08:11:44.218750,-13.79
2019-07-31 08:11:44.234375,-1.37
2019-07-31 08:11:44.250000,7.73
2019-07-31 08:11:44.265625,11.61
2019-07-31 08:11:44.281250,10.58
2019-07-31 08:11:44.296875,6.72
2019-07-31 08:11:44.312500,2.83
2019-07-31 08:11:44.328125,1.46
2019-07-31 08:11:44.343750,3.99
2019-07-31 08:11:44.359375,10.1
2019-07-31 08:11:44.375000,17.95
2019-07-31 08:11:44.390625,24.9
2019-07-31 08:11:44.406250,29.08
2019-07-31 08:11:44.421875,30.94
2019-07-31 08:11:44.437500,32.95
2019-07-31 08:11:44.453125,37.34
2019-07-31 08:11:44.468750,43.87
2019-07-31 08:11:44.484375,48.77
2019-07-31 08:11:44.500000,47.19
2019-07-31 08:11:44.515625,37.01
2019-07-31 08:11:44.531250,21.06
2019-07-31 08:11:44.546875,6.46
2019-07-31 08:11:44.562500,0.43
2019-07-31 08:11:44.578125,5.62
2019-07-31 08:11:44.593750,17.65
2019-07-31 08:11:44.609375,27.63
2019-07-31 08:11:44.625000,27.44
2019-07-31 08:11:44.640625,13.94
2019-07-31 08:11:44.656250,-7.82
2019-07-31 08:11:44.671875,-28.85
2019-07-31 08:11:44.687500,-42.59
2019-07-31 08:11:44.703125,-46.62
2019-07-31 08:11:44.718750,-42.69
2019-07-31 08:11:44.734375,-34.53
2019-07-31 08:11:44.750000,-25.72
2019-07-31 08:11:44.765625,-18.62
2019-07-31 08:11:44.781250,-14.49
2019-07-31 08:11:44.796875,-13.87
2019-07-31 08:11:44.812500,-16.92
2019-07-31 08:11:44.828125,-22.78
2019-07-31 08:11:44.843750,-29.15
2019-07-31 08:11:44.859375,-33.58
2019-07-31 08:11:44.875000,-33.92
2019-07-31 08:11:44.890625,-29.22
2019-07-31 08:11:44.906250,-20.92
2019-07-31 08:11:44.921875,-11.46
2019-07-31 08:11:44.937500,-2.93
2019-07-31 08:11:44.953125,2.97
2019-07-31 08:11:44.968750,4.83
2019-07-31 08:11:44.984375,1.74
2019-07-31 08:11:45.000000,-6.2
2019-07-31 08:11:45.015625,-16.47
2019-07-31 08:11:45.031250,-24.68
2019-07-31 08:11:45.046875,-25.75
2019-07-31 08:11:45.062500,-16.19
2019-07-31 08:11:45.078125,4.16
2019-07-31 08:11:45.093750,31.0
2019-07-31 08:11:45.109375,57.02
2019-07-31 08:11:45.125000,74.92
2019-07-31 08:11:45.140625,80.08
2019-07-31 08:11:45.156250,69.57
2019-07-31 08:11:45.171875,48.17
2019-07-31 08:11:45.187500,22.99
2019-07-31 08:11:45.203125,-0.25
2019-07-31 08:11:45.218750,-18.68
2019-07-31 08:11:45.234375,-32.0
2019-07-31 08:11:45.250000,-40.72
2019-07-31 08:11:45.265625,-45.36
2019-07-31 08:11:45.281250,-46.19
2019-07-31 08:11:45.296875,-43.89
2019-07-31 08:11:45.312500,-38.72
2019-07-31 08:11:45.328125,-32.1
2019-07-31 08:11:45.343750,-25.86
2019-07-31 08:11:45.359375,-21.74
2019-07-31 08:11:45.375000,-20.72
2019-07-31 08:11:45.390625,-22.47
2019-07-31 08:11:45.406250,-26.11
2019-07-31 08:11:45.421875,-30.8
2019-07-31 08:11:45.437500,-35.76
2019-07-31 08:11:45.453125,-40.0
2019-07-31 08:11:45.468750,-42.94
2019-07-31 08:11:45.484375,-44.37
2019-07-31 08:11:45.500000,-44.56
2019-07-31 08:11:45.515625,-44.06
2019-07-31 08:11:45.531250,-42.58
2019-07-31 08:11:45.546875,-40.45
2019-07-31 08:11:45.562500,-38.35
2019-07-31 08:11:45.578125,-37.11
2019-07-31 08:11:45.593750,-36.75
2019-07-31 08:11:45.609375,-37.05
2019-07-31 08:11:45.625000,-37.75
2019-07-31 08:11:45.640625,-38.54
2019-07-31 08:11:45.656250,-38.98
2019-07-31 08:11:45.671875,-36.33
2019-07-31 08:11:45.687500,-27.84
2019-07-31 08:11:45.703125,-11.9
2019-07-31 08:11:45.718750,10.89
2019-07-31 08:11:45.734375,37.36
2019-07-31 08:11:45.750000,62.4
2019-07-31 08:11:45.765625,80.65
2019-07-31 08:11:45.781250,89.08
2019-07-31 08:11:45.796875,80.42
2019-07-31 08:11:45.812500,56.88
2019-07-31 08:11:45.828125,26.69
2019-07-31 08:11:45.843750,-0.94
2019-07-31 08:11:45.859375,-21.0
2019-07-31 08:11:45.875000,-33.23
2019-07-31 08:11:45.890625,-38.89
2019-07-31 08:11:45.906250,-37.12
2019-07-31 08:11:45.921875,-24.43
2019-07-31 08:11:45.937500,2.16
2019-07-31 08:11:45.953125,42.99
2019-07-31 08:11:45.968750,91.93
2019-07-31 08:11:45.984375,138.27
2019-07-31 08:11:46.000000,171.78
2019-07-31 08:11:46.015625,187.32
2019-07-31 08:11:46.031250,186.52
2019-07-31 08:11:46.046875,175.45
2019-07-31 08:11:46.062500,165.1
2019-07-31 08:11:46.078125,156.9
2019-07-31 08:11:46.093750,150.33
2019-07-31 08:11:46.109375,143.05
2019-07-31 08:11:46.125000,132.62
2019-07-31 08:11:46.140625,118.02
2019-07-31 08:11:46.156250,100.1
2019-07-31 08:11:46.171875,80.77
2019-07-31 08:11:46.187500,61.78
2019-07-31 08:11:46.203125,40.21
2019-07-31 08:11:46.218750,17.45
2019-07-31 08:11:46.234375,-4.7
2019-07-31 08:11:46.250000,-25.28
2019-07-31 08:11:46.265625,-43.67
2019-07-31 08:11:46.281250,-59.14
2019-07-31 08:11:46.296875,-70.79
2019-07-31 08:11:46.312500,-77.87
2019-07-31 08:11:46.328125,-80.32
2019-07-31 08:11:46.343750,-79.0
2019-07-31 08:11:46.359375,-75.41
2019-07-31 08:11:46.375000,-71.02
2019-07-31 08:11:46.390625,-67.05
2019-07-31 08:11:46.406250,-64.1
2019-07-31 08:11:46.421875,-62.08
2019-07-31 08:11:46.437500,-60.34
2019-07-31 08:11:46.453125,-58.05
2019-07-31 08:11:46.468750,-54.67
2019-07-31 08:11:46.484375,-50.2
2019-07-31 08:11:46.500000,-44.97
2019-07-31 08:11:46.515625,-39.77
2019-07-31 08:11:46.531250,-35.4
2019-07-31 08:11:46.546875,-32.34
2019-07-31 08:11:46.562500,-30.62
2019-07-31 08:11:46.578125,-29.68
2019-07-31 08:11:46.593750,-28.69
2019-07-31 08:11:46.609375,-26.81
2019-07-31 08:11:46.625000,-23.63
2019-07-31 08:11:46.640625,-19.22
2019-07-31 08:11:46.656250,-14.39
2019-07-31 08:11:46.671875,-10.24
2019-07-31 08:11:46.687500,-7.63
2019-07-31 08:11:46.703125,-6.87
2019-07-31 08:11:46.718750,-7.45
2019-07-31 08:11:46.734375,-8.28
2019-07-31 08:11:46.750000,-8.11
2019-07-31 08:11:46.765625,-6.11
2019-07-31 08:11:46.781250,-2.23
2019-07-31 08:11:46.796875,2.59
2019-07-31 08:11:46.812500,6.9
2019-07-31 08:11:46.828125,9.4
2019-07-31 08:11:46.843750,9.73
2019-07-31 08:11:46.859375,8.44
2019-07-31 08:11:46.875000,6.75
2019-07-31 08:11:46.890625,5.87
2019-07-31 08:11:46.906250,6.39
2019-07-31 08:11:46.921875,8.27
2019-07-31 08:11:46.937500,11.21
2019-07-31 08:11:46.953125,15.45
2019-07-31 08:11:46.968750,21.25
2019-07-31 08:11:46.984375,27.78
2019-07-31 08:11:47.000000,32.06
2019-07-31 08:11:47.015625,29.43
2019-07-31 08:11:47.031250,15.83
2019-07-31 08:11:47.046875,-8.94
2019-07-31 08:11:47.062500,-39.71
2019-07-31 08:11:47.078125,-67.41
2019-07-31 08:11:47.093750,-82.4
2019-07-31 08:11:47.109375,-79.42
2019-07-31 08:11:47.125000,-59.92
2019-07-31 08:11:47.140625,-30.82
2019-07-31 08:11:47.156250,-0.4
2019-07-31 08:11:47.171875,25.53
2019-07-31 08:11:47.187500,45.09
2019-07-31 08:11:47.203125,58.72
2019-07-31 08:11:47.218750,66.32
2019-07-31 08:11:47.234375,65.96
2019-07-31 08:11:47.250000,55.18
2019-07-31 08:11:47.265625,33.64
2019-07-31 08:11:47.281250,5.19
2019-07-31 08:11:47.296875,-22.83
2019-07-31 08:11:47.312500,-42.86
2019-07-31 08:11:47.328125,-50.78
2019-07-31 08:11:47.343750,-47.55
2019-07-31 08:11:47.359375,-38.29
2019-07-31 08:11:47.375000,-28.67
2019-07-31 08:11:47.390625,-22.21
2019-07-31 08:11:47.406250,-19.08
2019-07-31 08:11:47.421875,-17.06
2019-07-31 08:11:47.437500,-13.62
2019-07-31 08:11:47.453125,-7.79
2019-07-31 08:11:47.468750,-0.47
2019-07-31 08:11:47.484375,6.06
2019-07-31 08:11:47.500000,9.02
2019-07-31 08:11:47.515625,6.42
2019-07-31 08:11:47.531250,-2.55
2019-07-31 08:11:47.546875,-16.66
2019-07-31 08:11:47.562500,-32.58
2019-07-31 08:11:47.578125,-45.37
2019-07-31 08:11:47.593750,-50.05
2019-07-31 08:11:47.609375,-43.68
2019-07-31 08:11:47.625000,-26.08
2019-07-31 08:11:47.640625,-2.65
2019-07-31 08:11:47.656250,19.38
2019-07-31 08:11:47.671875,34.02
2019-07-31 08:11:47.687500,38.83
2019-07-31 08:11:47.703125,35.37
2019-07-31 08:11:47.718750,27.68
2019-07-31 08:11:47.734375,19.62
2019-07-31 08:11:47.750000,13.06
2019-07-31 08:11:47.765625,7.63
2019-07-31 08:11:47.781250,1.86
2019-07-31 08:11:47.796875,-4.71
2019-07-31 08:11:47.812500,-11.1
2019-07-31 08:11:47.828125,-15.42
2019-07-31 08:11:47.843750,-16.33
2019-07-31 08:11:47.859375,-14.08
2019-07-31 08:11:47.875000,-10.63
2019-07-31 08:11:47.890625,-8.61
2019-07-31 08:11:47.906250,-10.16
2019-07-31 08:11:47.921875,-15.82
2019-07-31 08:11:47.937500,-24.04
2019-07-31 08:11:47.953125,-32.14
2019-07-31 08:11:47.968750,-37.61
2019-07-31 08:11:47.984375,-39.33
2019-07-31 08:11:48.000000,-38.07
2019-07-31 08:11:48.015625,-36.4
2019-07-31 08:11:48.031250,-36.95
2019-07-31 08:11:48.046875,-41.48
2019-07-31 08:11:48.062500,-50.11
2019-07-31 08:11:48.078125,-61.0
2019-07-31 08:11:48.093750,-71.34
2019-07-31 08:11:48.109375,-78.77
2019-07-31 08:11:48.125000,-82.44
2019-07-31 08:11:48.140625,-83.36
2019-07-31 08:11:48.156250,-83.95
2019-07-31 08:11:48.171875,-86.63
2019-07-31 08:11:48.187500,-92.29
2019-07-31 08:11:48.203125,-99.8
2019-07-31 08:11:48.218750,-106.23
2019-07-31 08:11:48.234375,-107.82
2019-07-31 08:11:48.250000,-101.66
2019-07-31 08:11:48.265625,-86.77
2019-07-31 08:11:48.281250,-63.33
2019-07-31 08:11:48.296875,-32.58
2019-07-31 08:11:48.312500,3.36
2019-07-31 08:11:48.328125,41.14
2019-07-31 08:11:48.343750,75.92
2019-07-31 08:11:48.359375,102.06
2019-07-31 08:11:48.375000,115.09
2019-07-31 08:11:48.390625,113.87
2019-07-31 08:11:48.406250,101.71
2019-07-31 08:11:48.421875,85.22
2019-07-31 08:11:48.437500,71.2
2019-07-31 08:11:48.453125,63.21
2019-07-31 08:11:48.468750,60.31
2019-07-31 08:11:48.484375,58.32
2019-07-31 08:11:48.500000,52.85
2019-07-31 08:11:48.515625,42.5
2019-07-31 08:11:48.531250,29.75
2019-07-31 08:11:48.546875,19.28
2019-07-31 08:11:48.562500,15.34
2019-07-31 08:11:48.578125,19.39
2019-07-31 08:11:48.593750,29.88
2019-07-31 08:11:48.609375,43.69
2019-07-31 08:11:48.625000,58.08
2019-07-31 08:11:48.640625,71.83
2019-07-31 08:11:48.656250,84.66
2019-07-31 08:11:48.671875,96.05
2019-07-31 08:11:48.687500,104.82
2019-07-31 08:11:48.703125,109.12
2019-07-31 08:11:48.718750,106.88
2019-07-31 08:11:48.734375,96.83
2019-07-31 08:11:48.750000,79.01
2019-07-31 08:11:48.765625,54.81
2019-07-31 08:11:48.781250,27.14
2019-07-31 08:11:48.796875,0.36
2019-07-31 08:11:48.812500,-20.41
2019-07-31 08:11:48.828125,-30.46
2019-07-31 08:11:48.843750,-27.57
2019-07-31 08:11:48.859375,-13.7
2019-07-31 08:11:48.875000,4.71
2019-07-31 08:11:48.890625,18.94
2019-07-31 08:11:48.906250,21.71
2019-07-31 08:11:48.921875,10.72
2019-07-31 08:11:48.937500,-10.19
2019-07-31 08:11:48.953125,-33.93
2019-07-31 08:11:48.968750,-54.09
2019-07-31 08:11:48.984375,-68.48
2019-07-31 08:11:49.000000,-79.51
2019-07-31 08:11:49.015625,-91.23
2019-07-31 08:11:49.031250,-105.52
2019-07-31 08:11:49.046875,-120.11
2019-07-31 08:11:49.062500,-129.51
2019-07-31 08:11:49.078125,-128.75
2019-07-31 08:11:49.093750,-117.14
2019-07-31 08:11:49.109375,-99.36
2019-07-31 08:11:49.125000,-83.3
2019-07-31 08:11:49.140625,-75.63
2019-07-31 08:11:49.156250,-78.0
2019-07-31 08:11:49.171875,-86.2
2019-07-31 08:11:49.187500,-92.45
2019-07-31 08:11:49.203125,-89.13
2019-07-31 08:11:49.218750,-72.5
2019-07-31 08:11:49.234375,-44.04
2019-07-31 08:11:49.250000,-9.07
2019-07-31 08:11:49.265625,25.64
2019-07-31 08:11:49.281250,54.71
2019-07-31 08:11:49.296875,75.88
2019-07-31 08:11:49.312500,89.94
2019-07-31 08:11:49.328125,98.37
2019-07-31 08:11:49.343750,103.42
2019-07-31 08:11:49.359375,106.94
2019-07-31 08:11:49.375000,109.99
2019-07-31 08:11:49.390625,113.13
2019-07-31 08:11:49.406250,116.68
2019-07-31 08:11:49.421875,120.86
2019-07-31 08:11:49.437500,125.81
2019-07-31 08:11:49.453125,131.03
2019-07-31 08:11:49.468750,135.22
2019-07-31 08:11:49.484375,136.79
2019-07-31 08:11:49.500000,134.24
2019-07-31 08:11:49.515625,126.81
2019-07-31 08:11:49.531250,115.05
2019-07-31 08:11:49.546875,100.87
2019-07-31 08:11:49.562500,86.93
2019-07-31 08:11:49.578125,75.88
2019-07-31 08:11:49.593750,68.97
2019-07-31 08:11:49.609375,65.71
2019-07-31 08:11:49.625000,64.46
2019-07-31 08:11:49.640625,62.74
2019-07-31 08:11:49.656250,57.73
2019-07-31 08:11:49.671875,47.35
2019-07-31 08:11:49.687500,31.29
2019-07-31 08:11:49.703125,11.99
2019-07-31 08:11:49.718750,-5.26
2019-07-31 08:11:49.734375,-13.62
2019-07-31 08:11:49.750000,-8.99
2019-07-31 08:11:49.765625,9.08
2019-07-31 08:11:49.781250,36.34
2019-07-31 08:11:49.796875,64.93
2019-07-31 08:11:49.812500,86.28
2019-07-31 08:11:49.828125,94.29
2019-07-31 08:11:49.843750,86.1
2019-07-31 08:11:49.859375,64.91
2019-07-31 08:11:49.875000,36.83
2019-07-31 08:11:49.890625,7.57
2019-07-31 08:11:49.906250,-19.21
2019-07-31 08:11:49.921875,-42.4
2019-07-31 08:11:49.937500,-62.24
2019-07-31 08:11:49.953125,-78.89
2019-07-31 08:11:49.968750,-91.85
2019-07-31 08:11:49.984375,-100.21
2019-07-31 08:11:50.000000,-103.31
2019-07-31 08:11:50.015625,-101.75
2019-07-31 08:11:50.031250,-97.36
2019-07-31 08:11:50.046875,-92.28
2019-07-31 08:11:50.062500,-88.43
2019-07-31 08:11:50.078125,-86.81
2019-07-31 08:11:50.093750,-87.35
2019-07-31 08:11:50.109375,-89.21
2019-07-31 08:11:50.125000,-91.16
2019-07-31 08:11:50.140625,-91.93
2019-07-31 08:11:50.156250,-91.0
2019-07-31 08:11:50.171875,-88.7
2019-07-31 08:11:50.187500,-85.84
2019-07-31 08:11:50.203125,-83.6
2019-07-31 08:11:50.218750,-83.09
2019-07-31 08:11:50.234375,-84.95
2019-07-31 08:11:50.250000,-89.21
2019-07-31 08:11:50.265625,-95.13
2019-07-31 08:11:50.281250,-101.35
2019-07-31 08:11:50.296875,-106.59
2019-07-31 08:11:50.312500,-110.02
2019-07-31 08:11:50.328125,-111.52
2019-07-31 08:11:50.343750,-111.94
2019-07-31 08:11:50.359375,-112.68
2019-07-31 08:11:50.375000,-114.83
2019-07-31 08:11:50.390625,-118.73
2019-07-31 08:11:50.406250,-123.47
2019-07-31 08:11:50.421875,-127.0
2019-07-31 08:11:50.437500,-126.77
2019-07-31 08:11:50.453125,-120.71
2019-07-31 08:11:50.468750,-106.54
2019-07-31 08:11:50.484375,-82.53
2019-07-31 08:11:50.500000,-47.97
2019-07-31 08:11:50.515625,-4.03
2019-07-31 08:11:50.531250,45.34
2019-07-31 08:11:50.546875,93.42
2019-07-31 08:11:50.562500,132.14
2019-07-31 08:11:50.578125,154.34
2019-07-31 08:11:50.593750,157.29
2019-07-31 08:11:50.609375,144.23
2019-07-31 08:11:50.625000,122.85
2019-07-31 08:11:50.640625,101.97
2019-07-31 08:11:50.656250,87.77
2019-07-31 08:11:50.671875,81.74
2019-07-31 08:11:50.687500,81.35
2019-07-31 08:11:50.703125,82.57
2019-07-31 08:11:50.718750,82.45
2019-07-31 08:11:50.734375,80.47
2019-07-31 08:11:50.750000,77.8
2019-07-31 08:11:50.765625,75.56
2019-07-31 08:11:50.781250,73.65
2019-07-31 08:11:50.796875,71.05
2019-07-31 08:11:50.812500,66.24
2019-07-31 08:11:50.828125,58.7
2019-07-31 08:11:50.843750,49.4
2019-07-31 08:11:50.859375,40.16
2019-07-31 08:11:50.875000,33.02
2019-07-31 08:11:50.890625,29.08
2019-07-31 08:11:50.906250,27.99
2019-07-31 08:11:50.921875,28.29
2019-07-31 08:11:50.937500,28.14
2019-07-31 08:11:50.953125,26.12
2019-07-31 08:11:50.968750,21.93
2019-07-31 08:11:50.984375,16.32
2019-07-31 08:11:51.000000,10.69
2019-07-31 08:11:51.015625,6.44
2019-07-31 08:11:51.031250,4.3
2019-07-31 08:11:51.046875,4.03
2019-07-31 08:11:51.062500,4.68
2019-07-31 08:11:51.078125,5.08
2019-07-31 08:11:51.093750,4.3
2019-07-31 08:11:51.109375,2.13
2019-07-31 08:11:51.125000,-1.03
2019-07-31 08:11:51.140625,-4.38
2019-07-31 08:11:51.156250,-7.11
2019-07-31 08:11:51.171875,-8.75
2019-07-31 08:11:51.187500,-9.35
2019-07-31 08:11:51.203125,-9.3
2019-07-31 08:11:51.218750,-9.1
2019-07-31 08:11:51.234375,-9.17
2019-07-31 08:11:51.250000,-9.57
2019-07-31 08:11:51.265625,-10.14
2019-07-31 08:11:51.281250,-10.58
2019-07-31 08:11:51.296875,-10.6
2019-07-31 08:11:51.312500,-10.1
2019-07-31 08:11:51.328125,-9.13
2019-07-31 08:11:51.343750,-7.93
2019-07-31 08:11:51.359375,-6.72
2019-07-31 08:11:51.375000,-5.67
2019-07-31 08:11:51.390625,-4.88
2019-07-31 08:11:51.406250,-4.31
2019-07-31 08:11:51.421875,-3.9
2019-07-31 08:11:51.437500,-3.6
2019-07-31 08:11:51.453125,-3.36
2019-07-31 08:11:51.468750,-3.17
2019-07-31 08:11:51.484375,-3.02
2019-07-31 08:11:51.500000,-2.89
2019-07-31 08:11:51.515625,-2.78
2019-07-31 08:11:51.531250,-2.65
2019-07-31 08:11:51.546875,-2.48
2019-07-31 08:11:51.562500,-2.32
2019-07-31 08:11:51.578125,-2.23
2019-07-31 08:11:51.593750,-2.23
2019-07-31 08:11:51.609375,-2.33
2019-07-31 08:11:51.625000,-2.46
2019-07-31 08:11:51.640625,-2.51
2019-07-31 08:11:51.656250,-2.39
2019-07-31 08:11:51.671875,-2.07
2019-07-31 08:11:51.687500,-1.6
2019-07-31 08:11:51.703125,-1.19
2019-07-31 08:11:51.718750,-1.02
2019-07-31 08:11:51.734375,-1.22
2019-07-31 08:11:51.750000,-1.78
2019-07-31 08:11:51.765625,-2.49
2019-07-31 08:11:51.781250,-3.04
2019-07-31 08:11:51.796875,-3.18
2019-07-31 08:11:51.812500,-2.77
2019-07-31 08:11:51.828125,-1.94
2019-07-31 08:11:51.843750,-1.03
2019-07-31 08:11:51.859375,-0.44
2019-07-31 08:11:51.875000,-0.46
2019-07-31 08:11:51.890625,-1.13
2019-07-31 08:11:51.906250,-2.17
2019-07-31 08:11:51.921875,-3.13
2019-07-31 08:11:51.937500,-3.54
2019-07-31 08:11:51.953125,-3.13
2019-07-31 08:11:51.968750,-2.01
2019-07-31 08:11:51.984375,-0.61
2019-07-31 08:11:52.000000,0.46
2019-07-31 08:11:52.015625,0.72
2019-07-31 08:11:52.031250,-0.01
2019-07-31 08:11:52.046875,-1.44
2019-07-31 08:11:52.062500,-3.04
2019-07-31 08:11:52.078125,-4.18
2019-07-31 08:11:52.093750,-4.33
2019-07-31 08:11:52.109375,-3.29
2019-07-31 08:11:52.125000,-1.26
2019-07-31 08:11:52.140625,1.13
2019-07-31 08:11:52.156250,2.66
2019-07-31 08:11:52.171875,1.7
2019-07-31 08:11:52.187500,-3.3
2019-07-31 08:11:52.203125,-12.71
2019-07-31 08:11:52.218750,-24.92
2019-07-31 08:11:52.234375,-36.06
2019-07-31 08:11:52.250000,-41.41
2019-07-31 08:11:52.265625,-37.46
2019-07-31 08:11:52.281250,-23.76
2019-07-31 08:11:52.296875,-3.4
2019-07-31 08:11:52.312500,18.33
2019-07-31 08:11:52.328125,36.24
2019-07-31 08:11:52.343750,46.73
2019-07-31 08:11:52.359375,48.31
2019-07-31 08:11:52.375000,40.8
2019-07-31 08:11:52.390625,24.5
2019-07-31 08:11:52.406250,0.14
2019-07-31 08:11:52.421875,-30.25
2019-07-31 08:11:52.437500,-62.54
2019-07-31 08:11:52.453125,-90.86
2019-07-31 08:11:52.468750,-109.02
2019-07-31 08:11:52.484375,-113.55
2019-07-31 08:11:52.500000,-105.18
2019-07-31 08:11:52.515625,-88.24
2019-07-31 08:11:52.531250,-68.56
2019-07-31 08:11:52.546875,-51.13
2019-07-31 08:11:52.562500,-38.67
2019-07-31 08:11:52.578125,-31.83
2019-07-31 08:11:52.593750,-30.18
2019-07-31 08:11:52.609375,-33.27
2019-07-31 08:11:52.625000,-40.55
2019-07-31 08:11:52.640625,-50.35
2019-07-31 08:11:52.656250,-59.17
2019-07-31 08:11:52.671875,-62.19
2019-07-31 08:11:52.687500,-54.98
2019-07-31 08:11:52.703125,-35.57
2019-07-31 08:11:52.718750,-6.28
2019-07-31 08:11:52.734375,26.94
2019-07-31 08:11:52.750000,56.68
2019-07-31 08:11:52.765625,77.06
2019-07-31 08:11:52.781250,86.15
2019-07-31 08:11:52.796875,86.16
2019-07-31 08:11:52.812500,81.56
2019-07-31 08:11:52.828125,76.43
2019-07-31 08:11:52.843750,72.63
2019-07-31 08:11:52.859375,69.64
2019-07-31 08:11:52.875000,65.93
2019-07-31 08:11:52.890625,60.75
2019-07-31 08:11:52.906250,54.8
2019-07-31 08:11:52.921875,49.95
2019-07-31 08:11:52.937500,47.87
2019-07-31 08:11:52.953125,48.91
2019-07-31 08:11:52.968750,51.86
2019-07-31 08:11:52.984375,54.54
2019-07-31 08:11:53.000000,54.85
2019-07-31 08:11:53.015625,51.91
2019-07-31 08:11:53.031250,46.52
2019-07-31 08:11:53.046875,40.68
2019-07-31 08:11:53.062500,36.75
2019-07-31 08:11:53.078125,36.29
2019-07-31 08:11:53.093750,39.34
2019-07-31 08:11:53.109375,44.4
2019-07-31 08:11:53.125000,49.06
2019-07-31 08:11:53.140625,51.25
2019-07-31 08:11:53.156250,49.97
2019-07-31 08:11:53.171875,45.83
2019-07-31 08:11:53.187500,40.63
2019-07-31 08:11:53.203125,36.53
2019-07-31 08:11:53.218750,35.28
2019-07-31 08:11:53.234375,37.8
2019-07-31 08:11:53.250000,44.1
2019-07-31 08:11:53.265625,53.02
2019-07-31 08:11:53.281250,62.06
2019-07-31 08:11:53.296875,67.43
2019-07-31 08:11:53.312500,64.9
2019-07-31 08:11:53.328125,51.44
2019-07-31 08:11:53.343750,27.03
2019-07-31 08:11:53.359375,-4.55
2019-07-31 08:11:53.375000,-36.79
2019-07-31 08:11:53.390625,-62.85
2019-07-31 08:11:53.406250,-78.66
2019-07-31 08:11:53.421875,-84.36
2019-07-31 08:11:53.437500,-83.68
2019-07-31 08:11:53.453125,-81.42
2019-07-31 08:11:53.468750,-80.73
2019-07-31 08:11:53.484375,-81.68
2019-07-31 08:11:53.500000,-81.93
2019-07-31 08:11:53.515625,-79.06
2019-07-31 08:11:53.531250,-72.25
2019-07-31 08:11:53.546875,-63.19
2019-07-31 08:11:53.562500,-55.06
2019-07-31 08:11:53.578125,-50.66
2019-07-31 08:11:53.593750,-51.11
2019-07-31 08:11:53.609375,-55.64
2019-07-31 08:11:53.625000,-62.35
2019-07-31 08:11:53.640625,-68.7
2019-07-31 08:11:53.656250,-72.23
2019-07-31 08:11:53.671875,-70.43
2019-07-31 08:11:53.687500,-61.11
2019-07-31 08:11:53.703125,-43.14
2019-07-31 08:11:53.718750,-17.32
2019-07-31 08:11:53.734375,12.97
2019-07-31 08:11:53.750000,42.65
2019-07-31 08:11:53.765625,66.8
2019-07-31 08:11:53.781250,82.64
2019-07-31 08:11:53.796875,90.79
2019-07-31 08:11:53.812500,94.77
2019-07-31 08:11:53.828125,98.99
2019-07-31 08:11:53.843750,106.04
2019-07-31 08:11:53.859375,114.76
2019-07-31 08:11:53.875000,120.45
2019-07-31 08:11:53.890625,117.17
2019-07-31 08:11:53.906250,100.99
2019-07-31 08:11:53.921875,72.57
2019-07-31 08:11:53.937500,37.54
2019-07-31 08:11:53.953125,4.22
2019-07-31 08:11:53.968750,-20.02
2019-07-31 08:11:53.984375,-31.76
2019-07-31 08:11:54.000000,-32.72
2019-07-31 08:11:54.015625,-28.48
2019-07-31 08:11:54.031250,-24.81
2019-07-31 08:11:54.046875,-25.31
2019-07-31 08:11:54.062500,-30.21
2019-07-31 08:11:54.078125,-37.56
2019-07-31 08:11:54.093750,-45.03
2019-07-31 08:11:54.109375,-50.85
2019-07-31 08:11:54.125000,-53.56
2019-07-31 08:11:54.140625,-51.23
2019-07-31 08:11:54.156250,-41.73
2019-07-31 08:11:54.171875,-24.4
2019-07-31 08:11:54.187500,-1.96
2019-07-31 08:11:54.203125,19.35
2019-07-31 08:11:54.218750,32.0
2019-07-31 08:11:54.234375,30.76
2019-07-31 08:11:54.250000,15.74
2019-07-31 08:11:54.265625,-7.37
2019-07-31 08:11:54.281250,-30.09
2019-07-31 08:11:54.296875,-45.12
2019-07-31 08:11:54.312500,-49.66
2019-07-31 08:11:54.328125,-45.74
2019-07-31 08:11:54.343750,-37.58
2019-07-31 08:11:54.359375,-28.61
2019-07-31 08:11:54.375000,-19.92
2019-07-31 08:11:54.390625,-10.82
2019-07-31 08:11:54.406250,-0.63
2019-07-31 08:11:54.421875,9.86
2019-07-31 08:11:54.437500,18.54
2019-07-31 08:11:54.453125,23.25
2019-07-31 08:11:54.468750,23.06
2019-07-31 08:11:54.484375,19.38
2019-07-31 08:11:54.500000,14.94
2019-07-31 08:11:54.515625,12.55
2019-07-31 08:11:54.531250,14.04
2019-07-31 08:11:54.546875,19.25
2019-07-31 08:11:54.562500,26.49
2019-07-31 08:11:54.578125,33.32
2019-07-31 08:11:54.593750,37.71
2019-07-31 08:11:54.609375,38.86
2019-07-31 08:11:54.625000,37.53
2019-07-31 08:11:54.640625,35.33
2019-07-31 08:11:54.656250,33.98
2019-07-31 08:11:54.671875,34.48
2019-07-31 08:11:54.687500,36.59
2019-07-31 08:11:54.703125,39.07
2019-07-31 08:11:54.718750,40.23
2019-07-31 08:11:54.734375,38.68
2019-07-31 08:11:54.750000,33.88
2019-07-31 08:11:54.765625,26.32
2019-07-31 08:11:54.781250,17.15
2019-07-31 08:11:54.796875,7.75
2019-07-31 08:11:54.812500,-0.86
2019-07-31 08:11:54.828125,-8.26
2019-07-31 08:11:54.843750,-14.29
2019-07-31 08:11:54.859375,-19.56
2019-07-31 08:11:54.875000,-24.47
2019-07-31 08:11:54.890625,-29.07
2019-07-31 08:11:54.906250,-33.08
2019-07-31 08:11:54.921875,-36.03
2019-07-31 08:11:54.937500,-37.51
2019-07-31 08:11:54.953125,-37.4
2019-07-31 08:11:54.968750,-36.02
2019-07-31 08:11:54.984375,-34.09
2019-07-31 08:11:55.000000,-32.14
2019-07-31 08:11:55.015625,-30.62
2019-07-31 08:11:55.031250,-29.64
2019-07-31 08:11:55.046875,-28.98
2019-07-31 08:11:55.062500,-28.23
2019-07-31 08:11:55.078125,-27.02
2019-07-31 08:11:55.093750,-25.21
2019-07-31 08:11:55.109375,-23.16
2019-07-31 08:11:55.125000,-21.32
2019-07-31 08:11:55.140625,-20.29
2019-07-31 08:11:55.156250,-20.33
2019-07-31 08:11:55.171875,-21.26
2019-07-31 08:11:55.187500,-22.43
2019-07-31 08:11:55.203125,-23.04
2019-07-31 08:11:55.218750,-22.49
2019-07-31 08:11:55.234375,-20.72
2019-07-31 08:11:55.250000,-18.41
2019-07-31 08:11:55.265625,-16.6
2019-07-31 08:11:55.281250,-16.35
2019-07-31 08:11:55.296875,-18.09
2019-07-31 08:11:55.312500,-21.39
2019-07-31 08:11:55.328125,-25.05
2019-07-31 08:11:55.343750,-27.61
2019-07-31 08:11:55.359375,-28.06
2019-07-31 08:11:55.375000,-26.41
2019-07-31 08:11:55.390625,-23.94
2019-07-31 08:11:55.406250,-22.17
2019-07-31 08:11:55.421875,-22.67
2019-07-31 08:11:55.437500,-25.87
2019-07-31 08:11:55.453125,-30.96
2019-07-31 08:11:55.468750,-36.4
2019-07-31 08:11:55.484375,-40.96
2019-07-31 08:11:55.500000,-43.98
2019-07-31 08:11:55.515625,-45.4
2019-07-31 08:11:55.531250,-45.17
2019-07-31 08:11:55.546875,-42.88
2019-07-31 08:11:55.562500,-38.33
2019-07-31 08:11:55.578125,-32.49
2019-07-31 08:11:55.593750,-27.93
2019-07-31 08:11:55.609375,-27.9
2019-07-31 08:11:55.625000,-34.09
2019-07-31 08:11:55.640625,-44.64
2019-07-31 08:11:55.656250,-54.03
2019-07-31 08:11:55.671875,-55.38
2019-07-31 08:11:55.687500,-44.12
2019-07-31 08:11:55.703125,-20.89
2019-07-31 08:11:55.718750,8.35
2019-07-31 08:11:55.734375,35.28
2019-07-31 08:11:55.750000,53.28
2019-07-31 08:11:55.765625,60.47
2019-07-31 08:11:55.781250,59.55
2019-07-31 08:11:55.796875,55.37
2019-07-31 08:11:55.812500,51.82
2019-07-31 08:11:55.828125,49.89
2019-07-31 08:11:55.843750,48.19
2019-07-31 08:11:55.859375,44.87
2019-07-31 08:11:55.875000,39.49
2019-07-31 08:11:55.890625,33.1
2019-07-31 08:11:55.906250,28.02
2019-07-31 08:11:55.921875,25.87
2019-07-31 08:11:55.937500,26.72
2019-07-31 08:11:55.953125,29.18
2019-07-31 08:11:55.968750,31.17
2019-07-31 08:11:55.984375,30.89
2019-07-31 08:11:56.000000,27.83
2019-07-31 08:11:56.015625,22.84
2019-07-31 08:11:56.031250,17.56
2019-07-31 08:11:56.046875,13.73
2019-07-31 08:11:56.062500,12.24
2019-07-31 08:11:56.078125,12.93
2019-07-31 08:11:56.093750,14.7
2019-07-31 08:11:56.109375,16.07
2019-07-31 08:11:56.125000,15.99
2019-07-31 08:11:56.140625,14.12
2019-07-31 08:11:56.156250,11.07
2019-07-31 08:11:56.171875,7.85
2019-07-31 08:11:56.187500,5.51
2019-07-31 08:11:56.203125,4.56
2019-07-31 08:11:56.218750,4.88
2019-07-31 08:11:56.234375,5.85
2019-07-31 08:11:56.250000,6.63
2019-07-31 08:11:56.265625,6.66
2019-07-31 08:11:56.281250,5.8
2019-07-31 08:11:56.296875,4.35
2019-07-31 08:11:56.312500,2.82
2019-07-31 08:11:56.328125,1.71
2019-07-31 08:11:56.343750,1.25
2019-07-31 08:11:56.359375,1.36
2019-07-31 08:11:56.375000,1.77
2019-07-31 08:11:56.390625,2.11
2019-07-31 08:11:56.406250,2.18
2019-07-31 08:11:56.421875,1.91
2019-07-31 08:11:56.437500,1.43
2019-07-31 08:11:56.453125,0.93
2019-07-31 08:11:56.468750,0.57
2019-07-31 08:11:56.484375,0.41
2019-07-31 08:11:56.500000,0.41
2019-07-31 08:11:56.515625,0.52
2019-07-31 08:11:56.531250,0.63
2019-07-31 08:11:56.546875,0.72
2019-07-31 08:11:56.562500,0.74
2019-07-31 08:11:56.578125,0.75
2019-07-31 08:11:56.593750,0.75
2019-07-31 08:11:56.609375,0.76
2019-07-31 08:11:56.625000,0.78
2019-07-31 08:11:56.640625,0.79
2019-07-31 08:11:56.656250,0.8
2019-07-31 08:11:56.671875,0.8
2019-07-31 08:11:56.687500,0.78
2019-07-31 08:11:56.703125,0.75
2019-07-31 08:11:56.718750,0.71
2019-07-31 08:11:56.734375,0.64
2019-07-31 08:11:56.750000,0.55
2019-07-31 08:11:56.765625,0.45
2019-07-31 08:11:56.781250,0.32
2019-07-31 08:11:56.796875,0.18
2019-07-31 08:11:56.812500,0.03
2019-07-31 08:11:56.828125,-0.12
2019-07-31 08:11:56.843750,-0.28
2019-07-31 08:11:56.859375,-0.43
2019-07-31 08:11:56.875000,-0.57
2019-07-31 08:11:56.890625,-0.71
2019-07-31 08:11:56.906250,-0.85
2019-07-31 08:11:56.921875,-0.99
2019-07-31 08:11:56.937500,-1.12
2019-07-31 08:11:56.953125,-1.25
2019-07-31 08:11:56.968750,-1.39
2019-07-31 08:11:56.984375,-1.54
2019-07-31 08:11:57.000000,-1.7
2019-07-31 08:11:57.015625,-1.88
2019-07-31 08:11:57.031250,-2.09
2019-07-31 08:11:57.046875,-2.34
2019-07-31 08:11:57.062500,-2.64
2019-07-31 08:11:57.078125,-2.99
2019-07-31 08:11:57.093750,-3.39
2019-07-31 08:11:57.109375,-3.86
2019-07-31 08:11:57.125000,-4.39
2019-07-31 08:11:57.140625,-5.0
2019-07-31 08:11:57.156250,-5.69
2019-07-31 08:11:57.171875,-6.49
2019-07-31 08:11:57.187500,-7.39
2019-07-31 08:11:57.203125,-8.41
2019-07-31 08:11:57.218750,-9.54
2019-07-31 08:11:57.234375,-10.78
2019-07-31 08:11:57.250000,-12.14
2019-07-31 08:11:57.265625,-13.59
2019-07-31 08:11:57.281250,-15.14
2019-07-31 08:11:57.296875,-16.8
2019-07-31 08:11:57.312500,-18.61
2019-07-31 08:11:57.328125,-20.57
2019-07-31 08:11:57.343750,-22.66
2019-07-31 08:11:57.359375,-24.88
2019-07-31 08:11:57.375000,-27.21
2019-07-31 08:11:57.390625,-29.67
2019-07-31 08:11:57.406250,-32.18
2019-07-31 08:11:57.421875,-34.76
2019-07-31 08:11:57.437500,-37.42
2019-07-31 08:11:57.453125,-40.28
2019-07-31 08:11:57.468750,-43.32
2019-07-31 08:11:57.484375,-46.51
2019-07-31 08:11:57.500000,-49.87
2019-07-31 08:11:57.515625,-53.36
2019-07-31 08:11:57.531250,-57.0
2019-07-31 08:11:57.546875,-60.63
2019-07-31 08:11:57.562500,-64.21
2019-07-31 08:11:57.578125,-67.62
2019-07-31 08:11:57.593750,-70.73
2019-07-31 08:11:57.609375,-73.18
2019-07-31 08:11:57.625000,-74.5
2019-07-31 08:11:57.640625,-74.19
2019-07-31 08:11:57.656250,-71.66
2019-07-31 08:11:57.671875,-66.49
2019-07-31 08:11:57.687500,-58.01
2019-07-31 08:11:57.703125,-45.94
2019-07-31 08:11:57.718750,-30.31
2019-07-31 08:11:57.734375,-11.62
2019-07-31 08:11:57.750000,9.55
2019-07-31 08:11:57.765625,32.27
2019-07-31 08:11:57.781250,55.4
2019-07-31 08:11:57.796875,77.58
2019-07-31 08:11:57.812500,96.86
2019-07-31 08:11:57.828125,112.2
2019-07-31 08:11:57.843750,122.84
2019-07-31 08:11:57.859375,129.22
2019-07-31 08:11:57.875000,130.62
2019-07-31 08:11:57.890625,127.06
2019-07-31 08:11:57.906250,118.91
2019-07-31 08:11:57.921875,106.75
2019-07-31 08:11:57.937500,91.41
2019-07-31 08:11:57.953125,73.84
2019-07-31 08:11:57.968750,55.14
2019-07-31 08:11:57.984375,36.14
2019-07-31 08:11:58.000000,17.6
2019-07-31 08:11:58.015625,-0.05
2019-07-31 08:11:58.031250,-16.09
2019-07-31 08:11:58.046875,-30.0
2019-07-31 08:11:58.062500,-41.51
2019-07-31 08:11:58.078125,-50.5
2019-07-31 08:11:58.093750,-56.87
2019-07-31 08:11:58.109375,-60.54
2019-07-31 08:11:58.125000,-61.42
2019-07-31 08:11:58.140625,-59.56
2019-07-31 08:11:58.156250,-55.26
2019-07-31 08:11:58.171875,-48.46
2019-07-31 08:11:58.187500,-39.37
2019-07-31 08:11:58.203125,-28.3
2019-07-31 08:11:58.218750,-15.68
2019-07-31 08:11:58.234375,-1.91
2019-07-31 08:11:58.250000,12.63
2019-07-31 08:11:58.265625,27.55
2019-07-31 08:11:58.281250,42.52
2019-07-31 08:11:58.296875,55.58
2019-07-31 08:11:58.312500,66.61
2019-07-31 08:11:58.328125,75.53
2019-07-31 08:11:58.343750,82.2
2019-07-31 08:11:58.359375,86.6
2019-07-31 08:11:58.375000,88.71
2019-07-31 08:11:58.390625,88.71
2019-07-31 08:11:58.406250,86.86
2019-07-31 08:11:58.421875,84.91
2019-07-31 08:11:58.437500,82.17
2019-07-31 08:11:58.453125,78.03
2019-07-31 08:11:58.468750,71.85
2019-07-31 08:11:58.484375,63.06
2019-07-31 08:11:58.500000,51.34
2019-07-31 08:11:58.515625,36.77
2019-07-31 08:11:58.531250,19.91
2019-07-31 08:11:58.546875,1.73
2019-07-31 08:11:58.562500,-17.94
2019-07-31 08:11:58.578125,-37.47
2019-07-31 08:11:58.593750,-55.46
2019-07-31 08:11:58.609375,-71.23
2019-07-31 08:11:58.625000,-84.5
2019-07-31 08:11:58.640625,-95.02
2019-07-31 08:11:58.656250,-102.12
2019-07-31 08:11:58.671875,-105.23
2019-07-31 08:11:58.687500,-103.52
2019-07-31 08:11:58.703125,-96.34
2019-07-31 08:11:58.718750,-83.63
2019-07-31 08:11:58.734375,-66.29
2019-07-31 08:11:58.750000,-45.82
2019-07-31 08:11:58.765625,-24.14
2019-07-31 08:11:58.781250,-2.95
2019-07-31 08:11:58.796875,15.57
2019-07-31 08:11:58.812500,30.91
2019-07-31 08:11:58.828125,43.52
2019-07-31 08:11:58.843750,53.98
2019-07-31 08:11:58.859375,62.71
2019-07-31 08:11:58.875000,69.69
2019-07-31 08:11:58.890625,75.15
2019-07-31 08:11:58.906250,79.31
2019-07-31 08:11:58.921875,82.13
2019-07-31 08:11:58.937500,82.5
2019-07-31 08:11:58.953125,78.78
2019-07-31 08:11:58.968750,69.55
2019-07-31 08:11:58.984375,54.85
2019-07-31 08:11:59.000000,38.43
2019-07-31 08:11:59.015625,23.51
2019-07-31 08:11:59.031250,13.87
2019-07-31 08:11:59.046875,11.62
2019-07-31 08:11:59.062500,15.89
2019-07-31 08:11:59.078125,23.06
2019-07-31 08:11:59.093750,28.84
2019-07-31 08:11:59.109375,30.19
2019-07-31 08:11:59.125000,26.47
2019-07-31 08:11:59.140625,19.24
2019-07-31 08:11:59.156250,10.67
2019-07-31 08:11:59.171875,2.77
2019-07-31 08:11:59.187500,-4.55
2019-07-31 08:11:59.203125,-10.68
2019-07-31 08:11:59.218750,-15.66
2019-07-31 08:11:59.234375,-19.4
2019-07-31 08:11:59.250000,-21.72
2019-07-31 08:11:59.265625,-22.57
2019-07-31 08:11:59.281250,-22.25
2019-07-31 08:11:59.296875,-21.33
2019-07-31 08:11:59.312500,-20.52
2019-07-31 08:11:59.328125,-20.35
2019-07-31 08:11:59.343750,-20.93
2019-07-31 08:11:59.359375,-22.21
2019-07-31 08:11:59.375000,-23.73
2019-07-31 08:11:59.390625,-24.75
2019-07-31 08:11:59.406250,-24.64
2019-07-31 08:11:59.421875,-23.04
2019-07-31 08:11:59.437500,-20.21
2019-07-31 08:11:59.453125,-16.67
2019-07-31 08:11:59.468750,-12.99
2019-07-31 08:11:59.484375,-9.5
2019-07-31 08:11:59.500000,-6.42
2019-07-31 08:11:59.515625,-3.65
2019-07-31 08:11:59.531250,-0.91
2019-07-31 08:11:59.546875,2.05
2019-07-31 08:11:59.562500,5.31
2019-07-31 08:11:59.578125,8.74
2019-07-31 08:11:59.593750,12.24
2019-07-31 08:11:59.609375,15.82
2019-07-31 08:11:59.625000,19.62
2019-07-31 08:11:59.640625,23.66
2019-07-31 08:11:59.656250,27.95
2019-07-31 08:11:59.671875,32.41
2019-07-31 08:11:59.687500,36.89
2019-07-31 08:11:59.703125,41.16
2019-07-31 08:11:59.718750,45.03
2019-07-31 08:11:59.734375,48.5
2019-07-31 08:11:59.750000,51.68
2019-07-31 08:11:59.765625,54.97
2019-07-31 08:11:59.781250,58.69
2019-07-31 08:11:59.796875,63.43
2019-07-31 08:11:59.812500,69.78
2019-07-31 08:11:59.828125,77.72
2019-07-31 08:11:59.843750,86.11
2019-07-31 08:11:59.859375,92.51
2019-07-31 08:11:59.875000,93.8
2019-07-31 08:11:59.890625,87.28
2019-07-31 08:11:59.906250,71.67
2019-07-31 08:11:59.921875,47.64
2019-07-31 08:11:59.937500,17.72
2019-07-31 08:11:59.953125,-14.73
2019-07-31 08:11:59.968750,-46.65
2019-07-31 08:11:59.984375,-75.91
2019-07-31 08:12:00.000000,-101.32
2019-07-31 08:12:00.015625,-122.38
2019-07-31 08:12:00.031250,-138.46
2019-07-31 08:12:00.046875,-148.94
2019-07-31 08:12:00.062500,-153.74
2019-07-31 08:12:00.078125,-153.29
2019-07-31 08:12:00.093750,-148.7
2019-07-31 08:12:00.109375,-141.38
2019-07-31 08:12:00.125000,-132.59
2019-07-31 08:12:00.140625,-123.03
2019-07-31 08:12:00.156250,-112.83
2019-07-31 08:12:00.171875,-101.79
2019-07-31 08:12:00.187500,-89.11
2019-07-31 08:12:00.203125,-75.12
2019-07-31 08:12:00.218750,-60.44
2019-07-31 08:12:00.234375,-45.82
2019-07-31 08:12:00.250000,-32.1
2019-07-31 08:12:00.265625,-19.95
2019-07-31 08:12:00.281250,-9.79
2019-07-31 08:12:00.296875,-1.69
2019-07-31 08:12:00.312500,4.64
2019-07-31 08:12:00.328125,9.64
2019-07-31 08:12:00.343750,13.68
2019-07-31 08:12:00.359375,17.01
2019-07-31 08:12:00.375000,19.85
2019-07-31 08:12:00.390625,22.18
2019-07-31 08:12:00.406250,23.85
2019-07-31 08:12:00.421875,24.73
2019-07-31 08:12:00.437500,24.8
2019-07-31 08:12:00.453125,24.29
2019-07-31 08:12:00.468750,23.61
2019-07-31 08:12:00.484375,23.16
2019-07-31 08:12:00.500000,23.31
2019-07-31 08:12:00.515625,24.12
2019-07-31 08:12:00.531250,25.31
2019-07-31 08:12:00.546875,26.33
2019-07-31 08:12:00.562500,26.65
2019-07-31 08:12:00.578125,25.96
2019-07-31 08:12:00.593750,24.43
2019-07-31 08:12:00.609375,22.74
2019-07-31 08:12:00.625000,21.66
2019-07-31 08:12:00.640625,21.95
2019-07-31 08:12:00.656250,23.82
2019-07-31 08:12:00.671875,26.71
2019-07-31 08:12:00.687500,29.46
2019-07-31 08:12:00.703125,30.8
2019-07-31 08:12:00.718750,29.94
2019-07-31 08:12:00.734375,27.04
2019-07-31 08:12:00.750000,23.34
2019-07-31 08:12:00.765625,20.59
2019-07-31 08:12:00.781250,20.4
2019-07-31 08:12:00.796875,23.36
2019-07-31 08:12:00.812500,28.58
2019-07-31 08:12:00.828125,33.85
2019-07-31 08:12:00.843750,36.64
2019-07-31 08:12:00.859375,35.2
2019-07-31 08:12:00.875000,29.42
2019-07-31 08:12:00.890625,21.03
2019-07-31 08:12:00.906250,12.48
2019-07-31 08:12:00.921875,6.27
2019-07-31 08:12:00.937500,3.4
2019-07-31 08:12:00.953125,2.76
2019-07-31 08:12:00.968750,1.62
2019-07-31 08:12:00.984375,-3.39
2019-07-31 08:12:01.000000,-14.93
2019-07-31 08:12:01.015625,-33.96
2019-07-31 08:12:01.031250,-58.55
2019-07-31 08:12:01.046875,-84.9
2019-07-31 08:12:01.062500,-107.14
2019-07-31 08:12:01.078125,-118.71
2019-07-31 08:12:01.093750,-114.42
2019-07-31 08:12:01.109375,-92.37
2019-07-31 08:12:01.125000,-55.19
2019-07-31 08:12:01.140625,-10.2
2019-07-31 08:12:01.156250,31.82
2019-07-31 08:12:01.171875,60.14
2019-07-31 08:12:01.187500,66.91
2019-07-31 08:12:01.203125,50.52
2019-07-31 08:12:01.218750,16.73
2019-07-31 08:12:01.234375,-22.9
2019-07-31 08:12:01.250000,-55.16
2019-07-31 08:12:01.265625,-70.02
2019-07-31 08:12:01.281250,-64.11
2019-07-31 08:12:01.296875,-41.25
2019-07-31 08:12:01.312500,-9.74
2019-07-31 08:12:01.328125,21.44
2019-07-31 08:12:01.343750,46.35
2019-07-31 08:12:01.359375,63.14
2019-07-31 08:12:01.375000,73.01
2019-07-31 08:12:01.390625,77.8
2019-07-31 08:12:01.406250,78.31
2019-07-31 08:12:01.421875,74.57
2019-07-31 08:12:01.437500,66.9
2019-07-31 08:12:01.453125,57.32
2019-07-31 08:12:01.468750,49.59
2019-07-31 08:12:01.484375,47.95
2019-07-31 08:12:01.500000,54.93
2019-07-31 08:12:01.515625,69.24
2019-07-31 08:12:01.531250,85.1
2019-07-31 08:12:01.546875,94.1
2019-07-31 08:12:01.562500,88.04
2019-07-31 08:12:01.578125,62.81
2019-07-31 08:12:01.593750,20.65
2019-07-31 08:12:01.609375,-30.22
2019-07-31 08:12:01.625000,-78.56
2019-07-31 08:12:01.640625,-114.32
2019-07-31 08:12:01.656250,-132.35
2019-07-31 08:12:01.671875,-133.73
2019-07-31 08:12:01.687500,-123.9
2019-07-31 08:12:01.703125,-109.35
2019-07-31 08:12:01.718750,-94.48
2019-07-31 08:12:01.734375,-80.39
2019-07-31 08:12:01.750000,-65.8
2019-07-31 08:12:01.765625,-49.18
2019-07-31 08:12:01.781250,-30.48
2019-07-31 08:12:01.796875,-11.01
2019-07-31 08:12:01.812500,6.29
2019-07-31 08:12:01.828125,19.17
2019-07-31 08:12:01.843750,27.03
2019-07-31 08:12:01.859375,30.7
2019-07-31 08:12:01.875000,31.57
2019-07-31 08:12:01.890625,31.03
2019-07-31 08:12:01.906250,29.32
2019-07-31 08:12:01.921875,25.59
2019-07-31 08:12:01.937500,18.38
2019-07-31 08:12:01.953125,6.56
2019-07-31 08:12:01.968750,-9.92
2019-07-31 08:12:01.984375,-29.8
2019-07-31 08:12:02.000000,-50.83
2019-07-31 08:12:02.015625,-70.51
2019-07-31 08:12:02.031250,-86.54
2019-07-31 08:12:02.046875,-97.47
2019-07-31 08:12:02.062500,-102.71
2019-07-31 08:12:02.078125,-102.39
2019-07-31 08:12:02.093750,-96.99
2019-07-31 08:12:02.109375,-87.01
2019-07-31 08:12:02.125000,-72.92
2019-07-31 08:12:02.140625,-54.71
2019-07-31 08:12:02.156250,-33.76
2019-07-31 08:12:02.171875,-11.71
2019-07-31 08:12:02.187500,9.7
2019-07-31 08:12:02.203125,28.81
2019-07-31 08:12:02.218750,44.35
2019-07-31 08:12:02.234375,55.57
2019-07-31 08:12:02.250000,62.44
2019-07-31 08:12:02.265625,65.47
2019-07-31 08:12:02.281250,65.48
2019-07-31 08:12:02.296875,63.24
2019-07-31 08:12:02.312500,59.52
2019-07-31 08:12:02.328125,54.88
2019-07-31 08:12:02.343750,49.57
2019-07-31 08:12:02.359375,43.66
2019-07-31 08:12:02.375000,37.17
2019-07-31 08:12:02.390625,30.23
2019-07-31 08:12:02.406250,23.03
2019-07-31 08:12:02.421875,15.92
2019-07-31 08:12:02.437500,9.08
2019-07-31 08:12:02.453125,2.88
2019-07-31 08:12:02.468750,-2.3
2019-07-31 08:12:02.484375,-6.1
2019-07-31 08:12:02.500000,-8.29
2019-07-31 08:12:02.515625,-8.83
2019-07-31 08:12:02.531250,-7.8
2019-07-31 08:12:02.546875,-5.41
2019-07-31 08:12:02.562500,-1.99
2019-07-31 08:12:02.578125,2.01
2019-07-31 08:12:02.593750,6.21
2019-07-31 08:12:02.609375,10.23
2019-07-31 08:12:02.625000,13.77
2019-07-31 08:12:02.640625,16.64
2019-07-31 08:12:02.656250,18.7
2019-07-31 08:12:02.671875,19.92
2019-07-31 08:12:02.687500,20.36
2019-07-31 08:12:02.703125,20.13
2019-07-31 08:12:02.718750,19.39
2019-07-31 08:12:02.734375,18.31
2019-07-31 08:12:02.750000,17.05
2019-07-31 08:12:02.765625,15.74
2019-07-31 08:12:02.781250,14.46
2019-07-31 08:12:02.796875,13.28
2019-07-31 08:12:02.812500,12.16
2019-07-31 08:12:02.828125,11.1
2019-07-31 08:12:02.843750,10.12
2019-07-31 08:12:02.859375,9.17
2019-07-31 08:12:02.875000,8.25
2019-07-31 08:12:02.890625,7.4
2019-07-31 08:12:02.906250,6.63
2019-07-31 08:12:02.921875,5.94
2019-07-31 08:12:02.937500,5.34
2019-07-31 08:12:02.953125,4.8
2019-07-31 08:12:02.968750,4.29
2019-07-31 08:12:02.984375,3.78
2019-07-31 08:12:03.000000,3.25
2019-07-31 08:12:03.015625,2.68
2019-07-31 08:12:03.031250,2.12
2019-07-31 08:12:03.046875,1.62
2019-07-31 08:12:03.062500,1.21
2019-07-31 08:12:03.078125,0.91
2019-07-31 08:12:03.093750,0.69
2019-07-31 08:12:03.109375,0.5
2019-07-31 08:12:03.125000,0.28
2019-07-31 08:12:03.140625,-0.02
2019-07-31 08:12:03.156250,-0.4
2019-07-31 08:12:03.171875,-0.8
2019-07-31 08:12:03.187500,-1.16
2019-07-31 08:12:03.203125,-1.41
2019-07-31 08:12:03.218750,-1.53
2019-07-31 08:12:03.234375,-1.56
2019-07-31 08:12:03.250000,-1.6
2019-07-31 08:12:03.265625,-1.76
2019-07-31 08:12:03.281250,-2.12
2019-07-31 08:12:03.296875,-2.66
2019-07-31 08:12:03.312500,-3.28
2019-07-31 08:12:03.328125,-3.8
2019-07-31 08:12:03.343750,-4.08
2019-07-31 08:12:03.359375,-4.05
2019-07-31 08:12:03.375000,-3.83
2019-07-31 08:12:03.390625,-3.66
2019-07-31 08:12:03.406250,-3.84
2019-07-31 08:12:03.421875,-4.55
2019-07-31 08:12:03.437500,-5.78
2019-07-31 08:12:03.453125,-7.23
2019-07-31 08:12:03.468750,-8.5
2019-07-31 08:12:03.484375,-9.18
2019-07-31 08:12:03.500000,-9.15
2019-07-31 08:12:03.515625,-8.63
2019-07-31 08:12:03.531250,-8.2
2019-07-31 08:12:03.546875,-8.48
2019-07-31 08:12:03.562500,-9.87
2019-07-31 08:12:03.578125,-12.32
2019-07-31 08:12:03.593750,-15.27
2019-07-31 08:12:03.609375,-17.88
2019-07-31 08:12:03.625000,-19.4
2019-07-31 08:12:03.640625,-19.56
2019-07-31 08:12:03.656250,-18.78
2019-07-31 08:12:03.671875,-18.04
2019-07-31 08:12:03.687500,-18.35
2019-07-31 08:12:03.703125,-20.42
2019-07-31 08:12:03.718750,-24.13
2019-07-31 08:12:03.734375,-28.61
2019-07-31 08:12:03.750000,-32.55
2019-07-31 08:12:03.765625,-35.03
2019-07-31 08:12:03.781250,-35.63
2019-07-31 08:12:03.796875,-34.86
2019-07-31 08:12:03.812500,-33.78
2019-07-31 08:12:03.828125,-33.46
2019-07-31 08:12:03.843750,-34.71
2019-07-31 08:12:03.859375,-38.03
2019-07-31 08:12:03.875000,-43.71
2019-07-31 08:12:03.890625,-51.53
2019-07-31 08:12:03.906250,-60.19
2019-07-31 08:12:03.921875,-66.81
2019-07-31 08:12:03.937500,-67.42
2019-07-31 08:12:03.953125,-58.35
2019-07-31 08:12:03.968750,-38.26
2019-07-31 08:12:03.984375,-9.49
2019-07-31 08:12:04.000000,22.39
2019-07-31 08:12:04.015625,50.53
2019-07-31 08:12:04.031250,69.72
2019-07-31 08:12:04.046875,78.3
2019-07-31 08:12:04.062500,78.27
2019-07-31 08:12:04.078125,73.61
2019-07-31 08:12:04.093750,68.0
2019-07-31 08:12:04.109375,63.31
2019-07-31 08:12:04.125000,59.5
2019-07-31 08:12:04.140625,55.77
2019-07-31 08:12:04.156250,51.74
2019-07-31 08:12:04.171875,47.89
2019-07-31 08:12:04.187500,45.13
2019-07-31 08:12:04.203125,43.99
2019-07-31 08:12:04.218750,44.11
2019-07-31 08:12:04.234375,44.52
2019-07-31 08:12:04.250000,44.29
2019-07-31 08:12:04.265625,42.85
2019-07-31 08:12:04.281250,40.55
2019-07-31 08:12:04.296875,38.18
2019-07-31 08:12:04.312500,36.52
2019-07-31 08:12:04.328125,35.96
2019-07-31 08:12:04.343750,36.28
2019-07-31 08:12:04.359375,36.88
2019-07-31 08:12:04.375000,37.25
2019-07-31 08:12:04.390625,37.18
2019-07-31 08:12:04.406250,36.94
2019-07-31 08:12:04.421875,37.09
2019-07-31 08:12:04.437500,38.03
2019-07-31 08:12:04.453125,39.79
2019-07-31 08:12:04.468750,41.93
2019-07-31 08:12:04.484375,43.93
2019-07-31 08:12:04.500000,45.31
2019-07-31 08:12:04.515625,46.02
2019-07-31 08:12:04.531250,46.32
2019-07-31 08:12:04.546875,46.65
2019-07-31 08:12:04.562500,47.52
2019-07-31 08:12:04.578125,49.6
2019-07-31 08:12:04.593750,53.69
2019-07-31 08:12:04.609375,60.18
2019-07-31 08:12:04.625000,68.29
2019-07-31 08:12:04.640625,75.38
2019-07-31 08:12:04.656250,77.36
2019-07-31 08:12:04.671875,70.19
2019-07-31 08:12:04.687500,51.99
2019-07-31 08:12:04.703125,24.64
2019-07-31 08:12:04.718750,-6.45
2019-07-31 08:12:04.734375,-34.36
2019-07-31 08:12:04.750000,-53.4
2019-07-31 08:12:04.765625,-61.33
2019-07-31 08:12:04.781250,-59.73
2019-07-31 08:12:04.796875,-52.61
2019-07-31 08:12:04.812500,-44.24
2019-07-31 08:12:04.828125,-37.48
2019-07-31 08:12:04.843750,-33.17
2019-07-31 08:12:04.859375,-31.04
2019-07-31 08:12:04.875000,-30.46
2019-07-31 08:12:04.890625,-31.15
2019-07-31 08:12:04.906250,-32.94
2019-07-31 08:12:04.921875,-35.71
2019-07-31 08:12:04.937500,-39.42
2019-07-31 08:12:04.953125,-44.02
