2019-08-12 15:41:17.000000,-0.0
2019-08-12 15:41:17.015625,-0.0
2019-08-12 15:41:17.031250,-0.0
2019-08-12 15:41:17.046875,-0.0
2019-08-12 15:41:17.062500,-0.0
2019-08-12 15:41:17.078125,-0.0
2019-08-12 15:41:17.093750,-0.0
2019-08-12 15:41:17.109375,-0.0
2019-08-12 15:41:17.125000,-0.0
2019-08-12 15:41:17.140625,-0.0
2019-08-12 15:41:17.156250,0.0
2019-08-12 15:41:17.171875,0.01
2019-08-12 15:41:17.187500,0.01
2019-08-12 15:41:17.203125,-0.0
2019-08-12 15:41:17.218750,-0.03
2019-08-12 15:41:17.234375,-0.05
2019-08-12 15:41:17.250000,-0.05
2019-08-12 15:41:17.265625,0.0
2019-08-12 15:41:17.281250,0.13
2019-08-12 15:41:17.296875,0.36
2019-08-12 15:41:17.312500,0.66
2019-08-12 15:41:17.328125,1.01
2019-08-12 15:41:17.343750,1.37
2019-08-12 15:41:17.359375,1.72
2019-08-12 15:41:17.375000,2.06
2019-08-12 15:41:17.390625,2.4
2019-08-12 15:41:17.406250,2.79
2019-08-12 15:41:17.421875,3.24
2019-08-12 15:41:17.437500,3.8
2019-08-12 15:41:17.453125,4.43
2019-08-12 15:41:17.468750,5.08
2019-08-12 15:41:17.484375,5.7
2019-08-12 15:41:17.500000,6.28
2019-08-12 15:41:17.515625,6.81
2019-08-12 15:41:17.531250,7.37
2019-08-12 15:41:17.546875,8.03
2019-08-12 15:41:17.562500,8.85
2019-08-12 15:41:17.578125,9.91
2019-08-12 15:41:17.593750,11.15
2019-08-12 15:41:17.609375,12.46
2019-08-12 15:41:17.625000,13.7
2019-08-12 15:41:17.640625,14.85
2019-08-12 15:41:17.656250,15.93
2019-08-12 15:41:17.671875,17.12
2019-08-12 15:41:17.687500,18.62
2019-08-12 15:41:17.703125,20.58
2019-08-12 15:41:17.718750,23.23
2019-08-12 15:41:17.734375,26.37
2019-08-12 15:41:17.750000,29.73
2019-08-12 15:41:17.765625,33.02
2019-08-12 15:41:17.781250,36.09
2019-08-12 15:41:17.796875,39.0
2019-08-12 15:41:17.812500,42.09
2019-08-12 15:41:17.828125,45.81
2019-08-12 15:41:17.843750,50.46
2019-08-12 15:41:17.859375,56.45
2019-08-12 15:41:17.875000,63.43
2019-08-12 15:41:17.890625,70.88
2019-08-12 15:41:17.906250,78.24
2019-08-12 15:41:17.921875,85.16
2019-08-12 15:41:17.937500,91.74
2019-08-12 15:41:17.953125,98.49
2019-08-12 15:41:17.968750,106.14
2019-08-12 15:41:17.984375,115.25
2019-08-12 15:41:18.000000,126.38
2019-08-12 15:41:18.015625,139.02
2019-08-12 15:41:18.031250,152.39
2019-08-12 15:41:18.046875,165.59
2019-08-12 15:41:18.062500,178.06
2019-08-12 15:41:18.078125,189.84
2019-08-12 15:41:18.093750,201.58
2019-08-12 15:41:18.109375,214.68
2019-08-12 15:41:18.125000,227.89
2019-08-12 15:41:18.140625,243.56
2019-08-12 15:41:18.156250,262.33
2019-08-12 15:41:18.171875,284.3
2019-08-12 15:41:18.187500,308.25
2019-08-12 15:41:18.203125,331.26
2019-08-12 15:41:18.218750,348.96
2019-08-12 15:41:18.234375,356.72
2019-08-12 15:41:18.250000,351.2
2019-08-12 15:41:18.265625,331.64
2019-08-12 15:41:18.281250,300.5
2019-08-12 15:41:18.296875,261.68
2019-08-12 15:41:18.312500,219.49
2019-08-12 15:41:18.328125,177.09
2019-08-12 15:41:18.343750,135.89
2019-08-12 15:41:18.359375,96.07
2019-08-12 15:41:18.375000,57.41
2019-08-12 15:41:18.390625,20.21
2019-08-12 15:41:18.406250,-14.65
2019-08-12 15:41:18.421875,-45.75
2019-08-12 15:41:18.437500,-72.45
2019-08-12 15:41:18.453125,-94.94
2019-08-12 15:41:18.468750,-113.99
2019-08-12 15:41:18.484375,-130.46
2019-08-12 15:41:18.500000,-144.81
2019-08-12 15:41:18.515625,-157.0
2019-08-12 15:41:18.531250,-166.45
2019-08-12 15:41:18.546875,-172.62
2019-08-12 15:41:18.562500,-175.17
2019-08-12 15:41:18.578125,-174.66
2019-08-12 15:41:18.593750,-172.32
2019-08-12 15:41:18.609375,-169.73
2019-08-12 15:41:18.625000,-168.42
2019-08-12 15:41:18.640625,-169.03
2019-08-12 15:41:18.656250,-171.49
2019-08-12 15:41:18.671875,-175.0
2019-08-12 15:41:18.687500,-178.38
2019-08-12 15:41:18.703125,-180.5
2019-08-12 15:41:18.718750,-180.94
2019-08-12 15:41:18.734375,-180.11
2019-08-12 15:41:18.750000,-179.12
2019-08-12 15:41:18.765625,-179.37
2019-08-12 15:41:18.781250,-181.96
2019-08-12 15:41:18.796875,-187.24
2019-08-12 15:41:18.812500,-194.59
2019-08-12 15:41:18.828125,-202.69
2019-08-12 15:41:18.843750,-210.07
2019-08-12 15:41:18.859375,-215.77
2019-08-12 15:41:18.875000,-219.84
2019-08-12 15:41:18.890625,-223.31
2019-08-12 15:41:18.906250,-227.79
2019-08-12 15:41:18.921875,-235.03
2019-08-12 15:41:18.937500,-246.24
2019-08-12 15:41:18.953125,-261.64
2019-08-12 15:41:18.968750,-280.15
2019-08-12 15:41:18.984375,-299.45
2019-08-12 15:41:19.000000,-316.31
2019-08-12 15:41:19.015625,-327.17
2019-08-12 15:41:19.031250,-328.93
2019-08-12 15:41:19.046875,-319.68
2019-08-12 15:41:19.062500,-299.4
2019-08-12 15:41:19.078125,-270.21
2019-08-12 15:41:19.093750,-236.01
2019-08-12 15:41:19.109375,-201.48
2019-08-12 15:41:19.125000,-170.8
2019-08-12 15:41:19.140625,-146.46
2019-08-12 15:41:19.156250,-128.62
2019-08-12 15:41:19.171875,-115.39
2019-08-12 15:41:19.187500,-103.92
2019-08-12 15:41:19.203125,-91.87
2019-08-12 15:41:19.218750,-78.47
2019-08-12 15:41:19.234375,-64.75
2019-08-12 15:41:19.250000,-52.6
2019-08-12 15:41:19.265625,-43.38
2019-08-12 15:41:19.281250,-36.78
2019-08-12 15:41:19.296875,-30.7
2019-08-12 15:41:19.312500,-22.47
2019-08-12 15:41:19.328125,-10.48
2019-08-12 15:41:19.343750,4.55
2019-08-12 15:41:19.359375,19.77
2019-08-12 15:41:19.375000,31.58
2019-08-12 15:41:19.390625,37.6
2019-08-12 15:41:19.406250,38.08
2019-08-12 15:41:19.421875,35.69
2019-08-12 15:41:19.437500,34.04
2019-08-12 15:41:19.453125,35.51
2019-08-12 15:41:19.468750,39.93
2019-08-12 15:41:19.484375,44.66
2019-08-12 15:41:19.500000,46.31
2019-08-12 15:41:19.515625,42.85
2019-08-12 15:41:19.531250,35.13
2019-08-12 15:41:19.546875,26.69
2019-08-12 15:41:19.562500,21.95
2019-08-12 15:41:19.578125,23.92
2019-08-12 15:41:19.593750,32.35
2019-08-12 15:41:19.609375,43.88
2019-08-12 15:41:19.625000,53.67
2019-08-12 15:41:19.640625,57.94
2019-08-12 15:41:19.656250,55.82
2019-08-12 15:41:19.671875,49.65
2019-08-12 15:41:19.687500,43.28
2019-08-12 15:41:19.703125,39.62
2019-08-12 15:41:19.718750,39.03
2019-08-12 15:41:19.734375,39.13
2019-08-12 15:41:19.750000,36.81
2019-08-12 15:41:19.765625,30.46
2019-08-12 15:41:19.781250,21.53
2019-08-12 15:41:19.796875,14.03
2019-08-12 15:41:19.812500,12.24
2019-08-12 15:41:19.828125,18.17
2019-08-12 15:41:19.843750,30.06
2019-08-12 15:41:19.859375,43.06
2019-08-12 15:41:19.875000,51.66
2019-08-12 15:41:19.890625,52.48
2019-08-12 15:41:19.906250,45.94
2019-08-12 15:41:19.921875,35.75
2019-08-12 15:41:19.937500,26.74
2019-08-12 15:41:19.953125,22.16
2019-08-12 15:41:19.968750,22.18
2019-08-12 15:41:19.984375,24.13
2019-08-12 15:41:20.000000,24.57
2019-08-12 15:41:20.015625,21.54
2019-08-12 15:41:20.031250,15.88
2019-08-12 15:41:20.046875,10.76
2019-08-12 15:41:20.062500,9.67
2019-08-12 15:41:20.078125,14.29
2019-08-12 15:41:20.093750,23.15
2019-08-12 15:41:20.109375,32.29
2019-08-12 15:41:20.125000,37.27
2019-08-12 15:41:20.140625,35.59
2019-08-12 15:41:20.156250,28.08
2019-08-12 15:41:20.171875,18.49
2019-08-12 15:41:20.187500,11.39
2019-08-12 15:41:20.203125,9.67
2019-08-12 15:41:20.218750,13.0
2019-08-12 15:41:20.234375,18.02
2019-08-12 15:41:20.250000,20.29
2019-08-12 15:41:20.265625,16.84
2019-08-12 15:41:20.281250,7.83
2019-08-12 15:41:20.296875,-3.56
2019-08-12 15:41:20.312500,-13.03
2019-08-12 15:41:20.328125,-17.52
2019-08-12 15:41:20.343750,-16.93
2019-08-12 15:41:20.359375,-14.1
2019-08-12 15:41:20.375000,-13.13
2019-08-12 15:41:20.390625,-17.0
2019-08-12 15:41:20.406250,-25.85
2019-08-12 15:41:20.421875,-36.82
2019-08-12 15:41:20.437500,-45.71
2019-08-12 15:41:20.453125,-49.07
2019-08-12 15:41:20.468750,-46.13
2019-08-12 15:41:20.484375,-39.01
2019-08-12 15:41:20.500000,-31.44
2019-08-12 15:41:20.515625,-26.55
2019-08-12 15:41:20.531250,-25.24
2019-08-12 15:41:20.546875,-25.85
2019-08-12 15:41:20.562500,-25.41
2019-08-12 15:41:20.578125,-21.65
2019-08-12 15:41:20.593750,-14.47
2019-08-12 15:41:20.609375,-6.03
2019-08-12 15:41:20.625000,0.55
2019-08-12 15:41:20.640625,3.17
2019-08-12 15:41:20.656250,2.05
2019-08-12 15:41:20.671875,-0.4
2019-08-12 15:41:20.687500,-1.08
2019-08-12 15:41:20.703125,1.94
2019-08-12 15:41:20.718750,8.08
2019-08-12 15:41:20.734375,14.59
2019-08-12 15:41:20.750000,17.97
2019-08-12 15:41:20.765625,15.97
2019-08-12 15:41:20.781250,8.86
2019-08-12 15:41:20.796875,-0.64
2019-08-12 15:41:20.812500,-8.82
2019-08-12 15:41:20.828125,-12.83
2019-08-12 15:41:20.843750,-12.23
2019-08-12 15:41:20.859375,-8.99
2019-08-12 15:41:20.875000,-6.27
2019-08-12 15:41:20.890625,-6.56
2019-08-12 15:41:20.906250,-10.07
2019-08-12 15:41:20.921875,-14.6
2019-08-12 15:41:20.937500,-16.83
2019-08-12 15:41:20.953125,-14.13
2019-08-12 15:41:20.968750,-6.34
2019-08-12 15:41:20.984375,4.09
2019-08-12 15:41:21.000000,13.29
2019-08-12 15:41:21.015625,18.15
2019-08-12 15:41:21.031250,18.1
2019-08-12 15:41:21.046875,15.35
2019-08-12 15:41:21.062500,13.6
2019-08-12 15:41:21.078125,15.81
2019-08-12 15:41:21.093750,22.34
2019-08-12 15:41:21.109375,30.62
2019-08-12 15:41:21.125000,36.68
2019-08-12 15:41:21.140625,37.45
2019-08-12 15:41:21.156250,32.67
2019-08-12 15:41:21.171875,25.15
2019-08-12 15:41:21.187500,19.09
2019-08-12 15:41:21.203125,17.72
2019-08-12 15:41:21.218750,21.42
2019-08-12 15:41:21.234375,27.62
2019-08-12 15:41:21.250000,32.55
2019-08-12 15:41:21.265625,33.58
2019-08-12 15:41:21.281250,30.83
2019-08-12 15:41:21.296875,27.08
2019-08-12 15:41:21.312500,25.9
2019-08-12 15:41:21.328125,29.41
2019-08-12 15:41:21.343750,36.92
2019-08-12 15:41:21.359375,45.24
2019-08-12 15:41:21.375000,50.67
2019-08-12 15:41:21.390625,51.03
2019-08-12 15:41:21.406250,46.96
2019-08-12 15:41:21.421875,41.41
2019-08-12 15:41:21.437500,37.79
2019-08-12 15:41:21.453125,37.94
2019-08-12 15:41:21.468750,41.12
2019-08-12 15:41:21.484375,44.57
2019-08-12 15:41:21.500000,45.09
2019-08-12 15:41:21.515625,41.03
2019-08-12 15:41:21.531250,33.3
2019-08-12 15:41:21.546875,25.0
2019-08-12 15:41:21.562500,19.74
2019-08-12 15:41:21.578125,19.65
2019-08-12 15:41:21.593750,24.26
2019-08-12 15:41:21.609375,30.49
2019-08-12 15:41:21.625000,34.42
2019-08-12 15:41:21.640625,33.38
2019-08-12 15:41:21.656250,27.53
2019-08-12 15:41:21.671875,19.84
2019-08-12 15:41:21.687500,14.4
2019-08-12 15:41:21.703125,14.1
2019-08-12 15:41:21.718750,18.88
2019-08-12 15:41:21.734375,25.64
2019-08-12 15:41:21.750000,30.01
2019-08-12 15:41:21.765625,28.94
2019-08-12 15:41:21.781250,22.52
2019-08-12 15:41:21.796875,13.93
2019-08-12 15:41:21.812500,7.61
2019-08-12 15:41:21.828125,6.57
2019-08-12 15:41:21.843750,10.64
2019-08-12 15:41:21.859375,16.6
2019-08-12 15:41:21.875000,20.16
2019-08-12 15:41:21.890625,18.45
2019-08-12 15:41:21.906250,11.65
2019-08-12 15:41:21.921875,2.78
2019-08-12 15:41:21.937500,-4.29
2019-08-12 15:41:21.953125,-7.11
2019-08-12 15:41:21.968750,-6.1
2019-08-12 15:41:21.984375,-4.26
2019-08-12 15:41:22.000000,-5.45
2019-08-12 15:41:22.015625,-12.15
2019-08-12 15:41:22.031250,-24.08
2019-08-12 15:41:22.046875,-38.27
2019-08-12 15:41:22.062500,-50.66
2019-08-12 15:41:22.078125,-58.18
2019-08-12 15:41:22.093750,-60.2
2019-08-12 15:41:22.109375,-58.75
2019-08-12 15:41:22.125000,-57.17
2019-08-12 15:41:22.140625,-58.23
2019-08-12 15:41:22.156250,-62.57
2019-08-12 15:41:22.171875,-68.46
2019-08-12 15:41:22.187500,-73.05
2019-08-12 15:41:22.203125,-73.99
2019-08-12 15:41:22.218750,-70.91
2019-08-12 15:41:22.234375,-65.29
2019-08-12 15:41:22.250000,-59.18
2019-08-12 15:41:22.265625,-53.37
2019-08-12 15:41:22.281250,-46.36
2019-08-12 15:41:22.296875,-34.95
2019-08-12 15:41:22.312500,-16.06
2019-08-12 15:41:22.328125,11.25
2019-08-12 15:41:22.343750,45.08
2019-08-12 15:41:22.359375,81.28
2019-08-12 15:41:22.375000,115.79
2019-08-12 15:41:22.390625,146.5
2019-08-12 15:41:22.406250,173.67
2019-08-12 15:41:22.421875,199.11
2019-08-12 15:41:22.437500,224.23
2019-08-12 15:41:22.453125,247.92
2019-08-12 15:41:22.468750,265.84
2019-08-12 15:41:22.484375,272.28
2019-08-12 15:41:22.500000,262.27
2019-08-12 15:41:22.515625,234.61
2019-08-12 15:41:22.531250,193.13
2019-08-12 15:41:22.546875,145.53
2019-08-12 15:41:22.562500,100.01
2019-08-12 15:41:22.578125,62.25
2019-08-12 15:41:22.593750,33.09
2019-08-12 15:41:22.609375,8.59
2019-08-12 15:41:22.625000,-17.51
2019-08-12 15:41:22.640625,-50.7
2019-08-12 15:41:22.656250,-93.3
2019-08-12 15:41:22.671875,-143.84
2019-08-12 15:41:22.687500,-198.68
2019-08-12 15:41:22.703125,-254.06
2019-08-12 15:41:22.718750,-307.39
2019-08-12 15:41:22.734375,-357.12
2019-08-12 15:41:22.750000,-401.69
2019-08-12 15:41:22.765625,-438.61
2019-08-12 15:41:22.781250,-464.63
2019-08-12 15:41:22.796875,-477.49
2019-08-12 15:41:22.812500,-476.39
2019-08-12 15:41:22.828125,-462.7
2019-08-12 15:41:22.843750,-439.6
2019-08-12 15:41:22.859375,-410.77
2019-08-12 15:41:22.875000,-378.99
2019-08-12 15:41:22.890625,-345.09
2019-08-12 15:41:22.906250,-307.75
2019-08-12 15:41:22.921875,-263.91
2019-08-12 15:41:22.937500,-209.83
2019-08-12 15:41:22.953125,-142.58
2019-08-12 15:41:22.968750,-61.95
2019-08-12 15:41:22.984375,28.39
2019-08-12 15:41:23.000000,120.94
2019-08-12 15:41:23.015625,206.29
2019-08-12 15:41:23.031250,276.15
2019-08-12 15:41:23.046875,326.08
2019-08-12 15:41:23.062500,357.18
2019-08-12 15:41:23.078125,375.22
2019-08-12 15:41:23.093750,387.82
2019-08-12 15:41:23.109375,400.95
2019-08-12 15:41:23.125000,416.76
2019-08-12 15:41:23.140625,433.57
2019-08-12 15:41:23.156250,447.71
2019-08-12 15:41:23.171875,455.87
2019-08-12 15:41:23.187500,456.59
2019-08-12 15:41:23.203125,450.16
2019-08-12 15:41:23.218750,437.51
2019-08-12 15:41:23.234375,419.11
2019-08-12 15:41:23.250000,394.62
2019-08-12 15:41:23.265625,363.56
2019-08-12 15:41:23.281250,326.13
2019-08-12 15:41:23.296875,283.86
2019-08-12 15:41:23.312500,239.38
2019-08-12 15:41:23.328125,195.72
2019-08-12 15:41:23.343750,155.28
2019-08-12 15:41:23.359375,119.22
2019-08-12 15:41:23.375000,87.39
2019-08-12 15:41:23.390625,58.74
2019-08-12 15:41:23.406250,32.15
2019-08-12 15:41:23.421875,7.02
2019-08-12 15:41:23.437500,-16.38
2019-08-12 15:41:23.453125,-37.14
2019-08-12 15:41:23.468750,-54.18
2019-08-12 15:41:23.484375,-66.83
2019-08-12 15:41:23.500000,-75.21
2019-08-12 15:41:23.515625,-80.21
2019-08-12 15:41:23.531250,-83.26
2019-08-12 15:41:23.546875,-85.78
2019-08-12 15:41:23.562500,-88.79
2019-08-12 15:41:23.578125,-92.75
2019-08-12 15:41:23.593750,-97.54
2019-08-12 15:41:23.609375,-102.78
2019-08-12 15:41:23.625000,-108.07
2019-08-12 15:41:23.640625,-113.14
2019-08-12 15:41:23.656250,-117.68
2019-08-12 15:41:23.671875,-121.72
2019-08-12 15:41:23.687500,-125.15
2019-08-12 15:41:23.703125,-127.57
2019-08-12 15:41:23.718750,-128.32
2019-08-12 15:41:23.734375,-126.61
2019-08-12 15:41:23.750000,-121.75
2019-08-12 15:41:23.765625,-113.23
2019-08-12 15:41:23.781250,-101.09
2019-08-12 15:41:23.796875,-85.89
2019-08-12 15:41:23.812500,-68.61
2019-08-12 15:41:23.828125,-50.32
2019-08-12 15:41:23.843750,-32.07
2019-08-12 15:41:23.859375,-14.72
2019-08-12 15:41:23.875000,1.13
2019-08-12 15:41:23.890625,15.15
2019-08-12 15:41:23.906250,27.23
2019-08-12 15:41:23.921875,37.42
2019-08-12 15:41:23.937500,45.9
2019-08-12 15:41:23.953125,52.73
2019-08-12 15:41:23.968750,58.03
2019-08-12 15:41:23.984375,61.9
2019-08-12 15:41:24.000000,64.47
2019-08-12 15:41:24.015625,65.84
2019-08-12 15:41:24.031250,66.24
2019-08-12 15:41:24.046875,65.95
2019-08-12 15:41:24.062500,65.25
2019-08-12 15:41:24.078125,64.32
2019-08-12 15:41:24.093750,63.08
2019-08-12 15:41:24.109375,61.5
2019-08-12 15:41:24.125000,59.31
2019-08-12 15:41:24.140625,56.31
2019-08-12 15:41:24.156250,52.51
2019-08-12 15:41:24.171875,48.11
2019-08-12 15:41:24.187500,43.47
2019-08-12 15:41:24.203125,38.92
2019-08-12 15:41:24.218750,34.52
2019-08-12 15:41:24.234375,29.69
2019-08-12 15:41:24.250000,23.68
2019-08-12 15:41:24.265625,15.59
2019-08-12 15:41:24.281250,4.8
2019-08-12 15:41:24.296875,-8.74
2019-08-12 15:41:24.312500,-24.46
2019-08-12 15:41:24.328125,-41.23
2019-08-12 15:41:24.343750,-57.82
2019-08-12 15:41:24.359375,-72.17
2019-08-12 15:41:24.375000,-84.24
2019-08-12 15:41:24.390625,-94.76
2019-08-12 15:41:24.406250,-104.77
2019-08-12 15:41:24.421875,-115.07
2019-08-12 15:41:24.437500,-125.8
2019-08-12 15:41:24.453125,-136.28
2019-08-12 15:41:24.468750,-145.28
2019-08-12 15:41:24.484375,-151.81
2019-08-12 15:41:24.500000,-155.37
2019-08-12 15:41:24.515625,-156.68
2019-08-12 15:41:24.531250,-156.99
2019-08-12 15:41:24.546875,-157.67
2019-08-12 15:41:24.562500,-159.85
2019-08-12 15:41:24.578125,-164.5
2019-08-12 15:41:24.593750,-172.38
2019-08-12 15:41:24.609375,-183.78
2019-08-12 15:41:24.625000,-197.8
2019-08-12 15:41:24.640625,-211.53
2019-08-12 15:41:24.656250,-220.31
2019-08-12 15:41:24.671875,-218.69
2019-08-12 15:41:24.687500,-202.86
2019-08-12 15:41:24.703125,-172.76
2019-08-12 15:41:24.718750,-132.75
2019-08-12 15:41:24.734375,-90.13
2019-08-12 15:41:24.750000,-52.19
2019-08-12 15:41:24.765625,-23.8
2019-08-12 15:41:24.781250,-5.21
2019-08-12 15:41:24.796875,6.21
2019-08-12 15:41:24.812500,14.28
2019-08-12 15:41:24.828125,21.89
2019-08-12 15:41:24.843750,31.0
2019-08-12 15:41:24.859375,42.97
2019-08-12 15:41:24.875000,59.36
2019-08-12 15:41:24.890625,81.57
2019-08-12 15:41:24.906250,109.55
2019-08-12 15:41:24.921875,140.3
2019-08-12 15:41:24.937500,167.5
2019-08-12 15:41:24.953125,183.54
2019-08-12 15:41:24.968750,182.37
2019-08-12 15:41:24.984375,161.75
2019-08-12 15:41:25.000000,124.13
2019-08-12 15:41:25.015625,75.69
2019-08-12 15:41:25.031250,24.55
2019-08-12 15:41:25.046875,-20.99
2019-08-12 15:41:25.062500,-53.72
2019-08-12 15:41:25.078125,-68.61
2019-08-12 15:41:25.093750,-63.56
2019-08-12 15:41:25.109375,-40.22
2019-08-12 15:41:25.125000,-4.1
2019-08-12 15:41:25.140625,36.47
2019-08-12 15:41:25.156250,72.64
2019-08-12 15:41:25.171875,97.68
2019-08-12 15:41:25.187500,108.78
2019-08-12 15:41:25.203125,107.2
2019-08-12 15:41:25.218750,96.91
2019-08-12 15:41:25.234375,82.61
2019-08-12 15:41:25.250000,68.09
2019-08-12 15:41:25.265625,56.12
2019-08-12 15:41:25.281250,48.24
2019-08-12 15:41:25.296875,45.44
2019-08-12 15:41:25.312500,48.6
2019-08-12 15:41:25.328125,58.02
2019-08-12 15:41:25.343750,72.81
2019-08-12 15:41:25.359375,90.26
2019-08-12 15:41:25.375000,106.03
2019-08-12 15:41:25.390625,115.2
2019-08-12 15:41:25.406250,114.2
2019-08-12 15:41:25.421875,102.13
2019-08-12 15:41:25.437500,81.05
2019-08-12 15:41:25.453125,54.8
2019-08-12 15:41:25.468750,26.85
2019-08-12 15:41:25.484375,-1.35
2019-08-12 15:41:25.500000,-30.66
2019-08-12 15:41:25.515625,-62.79
2019-08-12 15:41:25.531250,-97.88
2019-08-12 15:41:25.546875,-132.8
2019-08-12 15:41:25.562500,-161.42
2019-08-12 15:41:25.578125,-176.86
2019-08-12 15:41:25.593750,-174.83
2019-08-12 15:41:25.609375,-156.0
2019-08-12 15:41:25.625000,-126.0
2019-08-12 15:41:25.640625,-93.14
2019-08-12 15:41:25.656250,-64.94
2019-08-12 15:41:25.671875,-45.61
2019-08-12 15:41:25.687500,-35.41
2019-08-12 15:41:25.703125,-32.06
2019-08-12 15:41:25.718750,-32.76
2019-08-12 15:41:25.734375,-35.98
2019-08-12 15:41:25.750000,-41.76
2019-08-12 15:41:25.765625,-50.18
2019-08-12 15:41:25.781250,-60.09
2019-08-12 15:41:25.796875,-68.45
2019-08-12 15:41:25.812500,-70.82
2019-08-12 15:41:25.828125,-62.96
2019-08-12 15:41:25.843750,-42.46
2019-08-12 15:41:25.859375,-9.71
2019-08-12 15:41:25.875000,31.83
2019-08-12 15:41:25.890625,76.03
2019-08-12 15:41:25.906250,115.41
2019-08-12 15:41:25.921875,142.77
2019-08-12 15:41:25.937500,153.67
2019-08-12 15:41:25.953125,148.16
2019-08-12 15:41:25.968750,131.18
2019-08-12 15:41:25.984375,111.05
2019-08-12 15:41:26.000000,96.07
2019-08-12 15:41:26.015625,91.04
2019-08-12 15:41:26.031250,95.73
2019-08-12 15:41:26.046875,105.68
2019-08-12 15:41:26.062500,115.02
2019-08-12 15:41:26.078125,119.61
2019-08-12 15:41:26.093750,118.8
2019-08-12 15:41:26.109375,115.26
2019-08-12 15:41:26.125000,113.13
2019-08-12 15:41:26.140625,115.85
2019-08-12 15:41:26.156250,124.63
2019-08-12 15:41:26.171875,138.42
2019-08-12 15:41:26.187500,154.81
2019-08-12 15:41:26.203125,171.19
2019-08-12 15:41:26.218750,185.46
2019-08-12 15:41:26.234375,195.96
2019-08-12 15:41:26.250000,200.97
2019-08-12 15:41:26.265625,197.47
2019-08-12 15:41:26.281250,182.28
2019-08-12 15:41:26.296875,152.81
2019-08-12 15:41:26.312500,108.16
2019-08-12 15:41:26.328125,49.77
2019-08-12 15:41:26.343750,-18.38
2019-08-12 15:41:26.359375,-90.51
2019-08-12 15:41:26.375000,-160.32
2019-08-12 15:41:26.390625,-222.54
2019-08-12 15:41:26.406250,-273.92
2019-08-12 15:41:26.421875,-313.99
2019-08-12 15:41:26.437500,-344.56
2019-08-12 15:41:26.453125,-368.37
2019-08-12 15:41:26.468750,-387.88
2019-08-12 15:41:26.484375,-403.88
2019-08-12 15:41:26.500000,-415.3
2019-08-12 15:41:26.515625,-419.64
2019-08-12 15:41:26.531250,-415.09
2019-08-12 15:41:26.546875,-399.1
2019-08-12 15:41:26.562500,-369.36
2019-08-12 15:41:26.578125,-324.57
2019-08-12 15:41:26.593750,-265.33
2019-08-12 15:41:26.609375,-195.2
2019-08-12 15:41:26.625000,-120.99
2019-08-12 15:41:26.640625,-51.71
2019-08-12 15:41:26.656250,3.9
2019-08-12 15:41:26.671875,40.54
2019-08-12 15:41:26.687500,58.49
2019-08-12 15:41:26.703125,63.29
2019-08-12 15:41:26.718750,62.91
2019-08-12 15:41:26.734375,64.94
2019-08-12 15:41:26.750000,73.85
2019-08-12 15:41:26.765625,90.15
2019-08-12 15:41:26.781250,111.54
2019-08-12 15:41:26.796875,135.01
2019-08-12 15:41:26.812500,158.5
2019-08-12 15:41:26.828125,181.25
2019-08-12 15:41:26.843750,202.84
2019-08-12 15:41:26.859375,222.15
2019-08-12 15:41:26.875000,237.21
2019-08-12 15:41:26.890625,245.86
2019-08-12 15:41:26.906250,246.87
2019-08-12 15:41:26.921875,240.65
2019-08-12 15:41:26.937500,229.11
2019-08-12 15:41:26.953125,215.07
2019-08-12 15:41:26.968750,201.06
2019-08-12 15:41:26.984375,188.51
2019-08-12 15:41:27.000000,177.47
2019-08-12 15:41:27.015625,167.11
2019-08-12 15:41:27.031250,156.3
2019-08-12 15:41:27.046875,144.47
2019-08-12 15:41:27.062500,131.92
2019-08-12 15:41:27.078125,119.65
2019-08-12 15:41:27.093750,108.96
2019-08-12 15:41:27.109375,100.8
2019-08-12 15:41:27.125000,95.36
2019-08-12 15:41:27.140625,92.02
2019-08-12 15:41:27.156250,89.64
2019-08-12 15:41:27.171875,86.99
2019-08-12 15:41:27.187500,83.24
2019-08-12 15:41:27.203125,78.18
2019-08-12 15:41:27.218750,72.05
2019-08-12 15:41:27.234375,65.33
2019-08-12 15:41:27.250000,58.37
2019-08-12 15:41:27.265625,51.17
2019-08-12 15:41:27.281250,43.4
2019-08-12 15:41:27.296875,35.15
2019-08-12 15:41:27.312500,25.78
2019-08-12 15:41:27.328125,15.06
2019-08-12 15:41:27.343750,3.19
2019-08-12 15:41:27.359375,-9.25
2019-08-12 15:41:27.375000,-21.5
2019-08-12 15:41:27.390625,-32.78
2019-08-12 15:41:27.406250,-42.61
2019-08-12 15:41:27.421875,-50.65
2019-08-12 15:41:27.437500,-56.78
2019-08-12 15:41:27.453125,-61.05
2019-08-12 15:41:27.468750,-63.47
2019-08-12 15:41:27.484375,-64.05
2019-08-12 15:41:27.500000,-62.82
2019-08-12 15:41:27.515625,-59.86
2019-08-12 15:41:27.531250,-55.29
2019-08-12 15:41:27.546875,-49.41
2019-08-12 15:41:27.562500,-42.54
2019-08-12 15:41:27.578125,-34.91
2019-08-12 15:41:27.593750,-26.78
2019-08-12 15:41:27.609375,-18.3
2019-08-12 15:41:27.625000,-9.56
2019-08-12 15:41:27.640625,-0.66
2019-08-12 15:41:27.656250,8.34
2019-08-12 15:41:27.671875,17.41
2019-08-12 15:41:27.687500,26.33
2019-08-12 15:41:27.703125,34.96
2019-08-12 15:41:27.718750,43.17
2019-08-12 15:41:27.734375,50.86
2019-08-12 15:41:27.750000,58.04
2019-08-12 15:41:27.765625,64.72
2019-08-12 15:41:27.781250,70.97
2019-08-12 15:41:27.796875,76.9
2019-08-12 15:41:27.812500,82.65
2019-08-12 15:41:27.828125,88.05
2019-08-12 15:41:27.843750,92.97
2019-08-12 15:41:27.859375,97.3
2019-08-12 15:41:27.875000,100.82
2019-08-12 15:41:27.890625,103.29
2019-08-12 15:41:27.906250,104.35
2019-08-12 15:41:27.921875,103.49
2019-08-12 15:41:27.937500,100.08
2019-08-12 15:41:27.953125,95.2
2019-08-12 15:41:27.968750,89.24
2019-08-12 15:41:27.984375,82.47
2019-08-12 15:41:28.000000,75.15
2019-08-12 15:41:28.015625,67.53
2019-08-12 15:41:28.031250,59.91
2019-08-12 15:41:28.046875,52.7
2019-08-12 15:41:28.062500,46.28
2019-08-12 15:41:28.078125,41.07
2019-08-12 15:41:28.093750,37.5
2019-08-12 15:41:28.109375,35.67
2019-08-12 15:41:28.125000,35.59
2019-08-12 15:41:28.140625,37.27
2019-08-12 15:41:28.156250,40.53
2019-08-12 15:41:28.171875,45.13
2019-08-12 15:41:28.187500,50.7
2019-08-12 15:41:28.203125,56.83
2019-08-12 15:41:28.218750,63.08
2019-08-12 15:41:28.234375,68.99
2019-08-12 15:41:28.250000,73.97
2019-08-12 15:41:28.265625,77.56
2019-08-12 15:41:28.281250,79.43
2019-08-12 15:41:28.296875,79.47
2019-08-12 15:41:28.312500,77.73
2019-08-12 15:41:28.328125,74.45
2019-08-12 15:41:28.343750,69.98
2019-08-12 15:41:28.359375,64.68
2019-08-12 15:41:28.375000,58.95
2019-08-12 15:41:28.390625,52.97
2019-08-12 15:41:28.406250,46.93
2019-08-12 15:41:28.421875,40.93
2019-08-12 15:41:28.437500,35.1
2019-08-12 15:41:28.453125,29.58
2019-08-12 15:41:28.468750,24.46
2019-08-12 15:41:28.484375,19.85
2019-08-12 15:41:28.500000,15.82
2019-08-12 15:41:28.515625,12.32
2019-08-12 15:41:28.531250,9.13
2019-08-12 15:41:28.546875,6.02
2019-08-12 15:41:28.562500,2.79
2019-08-12 15:41:28.578125,-0.68
2019-08-12 15:41:28.593750,-4.36
2019-08-12 15:41:28.609375,-8.12
2019-08-12 15:41:28.625000,-11.73
2019-08-12 15:41:28.640625,-15.1
2019-08-12 15:41:28.656250,-18.31
2019-08-12 15:41:28.671875,-21.69
2019-08-12 15:41:28.687500,-25.71
2019-08-12 15:41:28.703125,-30.75
2019-08-12 15:41:28.718750,-36.93
2019-08-12 15:41:28.734375,-43.97
2019-08-12 15:41:28.750000,-51.23
2019-08-12 15:41:28.765625,-58.04
2019-08-12 15:41:28.781250,-63.94
2019-08-12 15:41:28.796875,-69.0
2019-08-12 15:41:28.812500,-73.84
2019-08-12 15:41:28.828125,-79.48
2019-08-12 15:41:28.843750,-86.83
2019-08-12 15:41:28.859375,-96.37
2019-08-12 15:41:28.875000,-107.85
2019-08-12 15:41:28.890625,-120.4
2019-08-12 15:41:28.906250,-132.87
2019-08-12 15:41:28.921875,-144.49
2019-08-12 15:41:28.937500,-155.18
2019-08-12 15:41:28.953125,-165.78
2019-08-12 15:41:28.968750,-177.67
2019-08-12 15:41:28.984375,-192.2
2019-08-12 15:41:29.000000,-210.05
2019-08-12 15:41:29.015625,-230.79
2019-08-12 15:41:29.031250,-253.24
2019-08-12 15:41:29.046875,-275.68
2019-08-12 15:41:29.062500,-296.73
2019-08-12 15:41:29.078125,-315.83
2019-08-12 15:41:29.093750,-333.49
2019-08-12 15:41:29.109375,-351.3
2019-08-12 15:41:29.125000,-371.74
2019-08-12 15:41:29.140625,-397.77
2019-08-12 15:41:29.156250,-431.81
2019-08-12 15:41:29.171875,-474.3
2019-08-12 15:41:29.187500,-522.15
2019-08-12 15:41:29.203125,-568.27
2019-08-12 15:41:29.218750,-602.89
2019-08-12 15:41:29.234375,-616.52
2019-08-12 15:41:29.250000,-603.51
2019-08-12 15:41:29.265625,-564.36
2019-08-12 15:41:29.281250,-505.48
2019-08-12 15:41:29.296875,-436.38
2019-08-12 15:41:29.312500,-365.79
2019-08-12 15:41:29.328125,-298.82
2019-08-12 15:41:29.343750,-236.51
2019-08-12 15:41:29.359375,-177.4
2019-08-12 15:41:29.375000,-120.02
2019-08-12 15:41:29.390625,-64.24
2019-08-12 15:41:29.406250,-10.81
2019-08-12 15:41:29.421875,39.76
2019-08-12 15:41:29.437500,87.93
2019-08-12 15:41:29.453125,134.34
2019-08-12 15:41:29.468750,178.24
2019-08-12 15:41:29.484375,216.56
2019-08-12 15:41:29.500000,244.72
2019-08-12 15:41:29.515625,259.06
2019-08-12 15:41:29.531250,259.02
2019-08-12 15:41:29.546875,248.11
2019-08-12 15:41:29.562500,232.24
2019-08-12 15:41:29.578125,216.78
2019-08-12 15:41:29.593750,204.34
2019-08-12 15:41:29.609375,194.36
2019-08-12 15:41:29.625000,184.83
2019-08-12 15:41:29.640625,174.7
2019-08-12 15:41:29.656250,165.14
2019-08-12 15:41:29.671875,158.82
2019-08-12 15:41:29.687500,157.55
2019-08-12 15:41:29.703125,160.48
2019-08-12 15:41:29.718750,163.66
2019-08-12 15:41:29.734375,162.03
2019-08-12 15:41:29.750000,152.19
2019-08-12 15:41:29.765625,134.51
2019-08-12 15:41:29.781250,113.22
2019-08-12 15:41:29.796875,94.13
2019-08-12 15:41:29.812500,81.61
2019-08-12 15:41:29.828125,76.26
2019-08-12 15:41:29.843750,74.71
2019-08-12 15:41:29.859375,71.83
2019-08-12 15:41:29.875000,63.85
2019-08-12 15:41:29.890625,50.72
2019-08-12 15:41:29.906250,36.45
2019-08-12 15:41:29.921875,26.71
2019-08-12 15:41:29.937500,25.62
2019-08-12 15:41:29.953125,33.24
2019-08-12 15:41:29.968750,45.27
2019-08-12 15:41:29.984375,55.35
2019-08-12 15:41:30.000000,58.48
2019-08-12 15:41:30.015625,53.57
2019-08-12 15:41:30.031250,43.76
2019-08-12 15:41:30.046875,34.39
2019-08-12 15:41:30.062500,29.65
2019-08-12 15:41:30.078125,30.23
2019-08-12 15:41:30.093750,33.0
2019-08-12 15:41:30.109375,33.13
2019-08-12 15:41:30.125000,27.03
2019-08-12 15:41:30.140625,14.72
2019-08-12 15:41:30.156250,-0.07
2019-08-12 15:41:30.171875,-11.79
2019-08-12 15:41:30.187500,-16.23
2019-08-12 15:41:30.203125,-12.73
2019-08-12 15:41:30.218750,-4.48
2019-08-12 15:41:30.234375,3.43
2019-08-12 15:41:30.250000,6.97
2019-08-12 15:41:30.265625,5.28
2019-08-12 15:41:30.281250,1.18
2019-08-12 15:41:30.296875,-0.75
2019-08-12 15:41:30.312500,3.16
2019-08-12 15:41:30.328125,13.43
2019-08-12 15:41:30.343750,27.07
2019-08-12 15:41:30.359375,39.15
2019-08-12 15:41:30.375000,45.47
2019-08-12 15:41:30.390625,44.74
2019-08-12 15:41:30.406250,39.1
2019-08-12 15:41:30.421875,32.49
2019-08-12 15:41:30.437500,28.25
2019-08-12 15:41:30.453125,27.04
2019-08-12 15:41:30.468750,26.68
2019-08-12 15:41:30.484375,23.8
2019-08-12 15:41:30.500000,16.51
2019-08-12 15:41:30.515625,6.06
2019-08-12 15:41:30.531250,-3.34
2019-08-12 15:41:30.546875,-6.76
2019-08-12 15:41:30.562500,-1.43
2019-08-12 15:41:30.578125,11.4
2019-08-12 15:41:30.593750,26.73
2019-08-12 15:41:30.609375,38.42
2019-08-12 15:41:30.625000,42.22
2019-08-12 15:41:30.640625,37.84
2019-08-12 15:41:30.656250,28.69
2019-08-12 15:41:30.671875,19.8
2019-08-12 15:41:30.687500,14.81
2019-08-12 15:41:30.703125,14.16
2019-08-12 15:41:30.718750,15.17
2019-08-12 15:41:30.734375,13.86
2019-08-12 15:41:30.750000,7.63
2019-08-12 15:41:30.765625,-3.32
2019-08-12 15:41:30.781250,-15.74
2019-08-12 15:41:30.796875,-25.35
2019-08-12 15:41:30.812500,-29.09
2019-08-12 15:41:30.828125,-26.99
2019-08-12 15:41:30.843750,-22.01
2019-08-12 15:41:30.859375,-18.37
2019-08-12 15:41:30.875000,-19.1
2019-08-12 15:41:30.890625,-24.18
2019-08-12 15:41:30.906250,-30.61
2019-08-12 15:41:30.921875,-34.0
2019-08-12 15:41:30.937500,-31.07
2019-08-12 15:41:30.953125,-21.58
2019-08-12 15:41:30.968750,-8.4
2019-08-12 15:41:30.984375,4.04
2019-08-12 15:41:31.000000,12.18
2019-08-12 15:41:31.015625,15.21
2019-08-12 15:41:31.031250,15.17
2019-08-12 15:41:31.046875,15.49
2019-08-12 15:41:31.062500,18.76
2019-08-12 15:41:31.078125,24.96
2019-08-12 15:41:31.093750,31.35
2019-08-12 15:41:31.109375,34.02
2019-08-12 15:41:31.125000,30.14
2019-08-12 15:41:31.140625,19.82
2019-08-12 15:41:31.156250,6.34
2019-08-12 15:41:31.171875,-5.45
2019-08-12 15:41:31.187500,-11.64
2019-08-12 15:41:31.203125,-11.18
2019-08-12 15:41:31.218750,-6.43
2019-08-12 15:41:31.234375,-1.67
2019-08-12 15:41:31.250000,-0.33
2019-08-12 15:41:31.265625,-3.05
2019-08-12 15:41:31.281250,-7.26
2019-08-12 15:41:31.296875,-8.75
2019-08-12 15:41:31.312500,-4.41
2019-08-12 15:41:31.328125,5.7
2019-08-12 15:41:31.343750,18.17
2019-08-12 15:41:31.359375,27.97
2019-08-12 15:41:31.375000,31.29
2019-08-12 15:41:31.390625,27.63
2019-08-12 15:41:31.406250,19.81
2019-08-12 15:41:31.421875,12.24
2019-08-12 15:41:31.437500,8.32
2019-08-12 15:41:31.453125,8.6
2019-08-12 15:41:31.468750,10.79
2019-08-12 15:41:31.484375,11.42
2019-08-12 15:41:31.500000,8.23
2019-08-12 15:41:31.515625,1.67
2019-08-12 15:41:31.531250,-5.17
2019-08-12 15:41:31.546875,-8.37
2019-08-12 15:41:31.562500,-5.36
2019-08-12 15:41:31.578125,3.47
2019-08-12 15:41:31.593750,14.94
2019-08-12 15:41:31.609375,24.62
2019-08-12 15:41:31.625000,29.12
2019-08-12 15:41:31.640625,27.75
2019-08-12 15:41:31.656250,22.7
2019-08-12 15:41:31.671875,17.61
2019-08-12 15:41:31.687500,15.24
2019-08-12 15:41:31.703125,16.03
2019-08-12 15:41:31.718750,17.88
2019-08-12 15:41:31.734375,17.5
2019-08-12 15:41:31.750000,12.59
2019-08-12 15:41:31.765625,3.42
2019-08-12 15:41:31.781250,-7.09
2019-08-12 15:41:31.796875,-14.89
2019-08-12 15:41:31.812500,-17.15
2019-08-12 15:41:31.828125,-13.86
2019-08-12 15:41:31.843750,-7.92
2019-08-12 15:41:31.859375,-3.45
2019-08-12 15:41:31.875000,-3.33
2019-08-12 15:41:31.890625,-7.42
2019-08-12 15:41:31.906250,-12.54
2019-08-12 15:41:31.921875,-14.3
2019-08-12 15:41:31.937500,-9.74
2019-08-12 15:41:31.953125,0.71
2019-08-12 15:41:31.968750,13.18
2019-08-12 15:41:31.984375,22.31
2019-08-12 15:41:32.000000,24.09
2019-08-12 15:41:32.015625,17.95
2019-08-12 15:41:32.031250,7.13
2019-08-12 15:41:32.046875,-3.26
2019-08-12 15:41:32.062500,-9.03
2019-08-12 15:41:32.078125,-9.11
2019-08-12 15:41:32.093750,-5.99
2019-08-12 15:41:32.109375,-4.01
2019-08-12 15:41:32.125000,-6.68
2019-08-12 15:41:32.140625,-14.47
2019-08-12 15:41:32.156250,-24.51
2019-08-12 15:41:32.171875,-32.21
2019-08-12 15:41:32.187500,-33.87
2019-08-12 15:41:32.203125,-28.86
2019-08-12 15:41:32.218750,-19.83
2019-08-12 15:41:32.234375,-11.06
2019-08-12 15:41:32.250000,-5.82
2019-08-12 15:41:32.265625,-4.58
2019-08-12 15:41:32.281250,-4.78
2019-08-12 15:41:32.296875,-2.8
2019-08-12 15:41:32.312500,3.77
2019-08-12 15:41:32.328125,14.39
2019-08-12 15:41:32.343750,25.6
2019-08-12 15:41:32.359375,32.96
2019-08-12 15:41:32.375000,33.58
2019-08-12 15:41:32.390625,27.73
2019-08-12 15:41:32.406250,18.78
2019-08-12 15:41:32.421875,11.21
2019-08-12 15:41:32.437500,7.99
2019-08-12 15:41:32.453125,9.06
2019-08-12 15:41:32.468750,11.23
2019-08-12 15:41:32.484375,10.33
2019-08-12 15:41:32.500000,3.84
2019-08-12 15:41:32.515625,-7.33
2019-08-12 15:41:32.531250,-18.92
2019-08-12 15:41:32.546875,-25.65
2019-08-12 15:41:32.562500,-24.21
2019-08-12 15:41:32.578125,-15.27
2019-08-12 15:41:32.593750,-3.25
2019-08-12 15:41:32.609375,6.12
2019-08-12 15:41:32.625000,9.06
2019-08-12 15:41:32.640625,5.78
2019-08-12 15:41:32.656250,0.18
2019-08-12 15:41:32.671875,-2.65
2019-08-12 15:41:32.687500,0.52
2019-08-12 15:41:32.703125,9.04
2019-08-12 15:41:32.718750,18.82
2019-08-12 15:41:32.734375,24.64
2019-08-12 15:41:32.750000,23.05
2019-08-12 15:41:32.765625,14.08
2019-08-12 15:41:32.781250,1.16
2019-08-12 15:41:32.796875,-11.14
2019-08-12 15:41:32.812500,-19.45
2019-08-12 15:41:32.828125,-23.43
2019-08-12 15:41:32.843750,-25.48
2019-08-12 15:41:32.859375,-29.33
2019-08-12 15:41:32.875000,-37.42
2019-08-12 15:41:32.890625,-49.4
2019-08-12 15:41:32.906250,-62.26
2019-08-12 15:41:32.921875,-71.89
2019-08-12 15:41:32.937500,-75.52
2019-08-12 15:41:32.953125,-73.06
2019-08-12 15:41:32.968750,-67.49
2019-08-12 15:41:32.984375,-62.94
2019-08-12 15:41:33.000000,-62.73
2019-08-12 15:41:33.015625,-67.47
2019-08-12 15:41:33.031250,-75.02
2019-08-12 15:41:33.046875,-81.93
2019-08-12 15:41:33.062500,-85.51
2019-08-12 15:41:33.078125,-85.32
2019-08-12 15:41:33.093750,-83.33
2019-08-12 15:41:33.109375,-82.96
2019-08-12 15:41:33.125000,-86.95
2019-08-12 15:41:33.140625,-96.18
2019-08-12 15:41:33.156250,-108.83
2019-08-12 15:41:33.171875,-121.62
2019-08-12 15:41:33.187500,-131.64
2019-08-12 15:41:33.203125,-137.95
2019-08-12 15:41:33.218750,-141.71
2019-08-12 15:41:33.234375,-145.02
2019-08-12 15:41:33.250000,-149.8
2019-08-12 15:41:33.265625,-155.94
2019-08-12 15:41:33.281250,-161.69
2019-08-12 15:41:33.296875,-164.1
2019-08-12 15:41:33.312500,-160.84
2019-08-12 15:41:33.328125,-151.42
2019-08-12 15:41:33.343750,-137.14
2019-08-12 15:41:33.359375,-119.87
2019-08-12 15:41:33.375000,-100.33
2019-08-12 15:41:33.390625,-78.13
2019-08-12 15:41:33.406250,-46.42
2019-08-12 15:41:33.421875,-0.04
2019-08-12 15:41:33.437500,63.08
2019-08-12 15:41:33.453125,139.48
2019-08-12 15:41:33.468750,219.95
2019-08-12 15:41:33.484375,292.28
2019-08-12 15:41:33.500000,345.41
2019-08-12 15:41:33.515625,378.62
2019-08-12 15:41:33.531250,397.51
2019-08-12 15:41:33.546875,410.53
2019-08-12 15:41:33.562500,424.15
2019-08-12 15:41:33.578125,440.9
2019-08-12 15:41:33.593750,457.41
2019-08-12 15:41:33.609375,466.87
2019-08-12 15:41:33.625000,460.56
2019-08-12 15:41:33.640625,432.87
2019-08-12 15:41:33.656250,384.06
2019-08-12 15:41:33.671875,319.65
2019-08-12 15:41:33.687500,248.62
2019-08-12 15:41:33.703125,179.05
2019-08-12 15:41:33.718750,115.98
2019-08-12 15:41:33.734375,60.92
2019-08-12 15:41:33.750000,13.61
2019-08-12 15:41:33.765625,-26.01
2019-08-12 15:41:33.781250,-56.69
2019-08-12 15:41:33.796875,-76.53
2019-08-12 15:41:33.812500,-85.05
2019-08-12 15:41:33.828125,-83.83
2019-08-12 15:41:33.843750,-76.6
2019-08-12 15:41:33.859375,-67.84
2019-08-12 15:41:33.875000,-61.22
2019-08-12 15:41:33.890625,-58.49
2019-08-12 15:41:33.906250,-59.24
2019-08-12 15:41:33.921875,-61.28
2019-08-12 15:41:33.937500,-61.97
2019-08-12 15:41:33.953125,-59.74
2019-08-12 15:41:33.968750,-54.63
2019-08-12 15:41:33.984375,-48.21
2019-08-12 15:41:34.000000,-42.63
2019-08-12 15:41:34.015625,-39.65
2019-08-12 15:41:34.031250,-39.95
2019-08-12 15:41:34.046875,-43.06
2019-08-12 15:41:34.062500,-47.6
2019-08-12 15:41:34.078125,-52.06
2019-08-12 15:41:34.093750,-55.46
2019-08-12 15:41:34.109375,-57.83
2019-08-12 15:41:34.125000,-60.04
2019-08-12 15:41:34.140625,-63.26
2019-08-12 15:41:34.156250,-68.45
2019-08-12 15:41:34.171875,-76.02
2019-08-12 15:41:34.187500,-85.8
2019-08-12 15:41:34.203125,-97.22
2019-08-12 15:41:34.218750,-109.64
2019-08-12 15:41:34.234375,-122.54
2019-08-12 15:41:34.250000,-135.93
2019-08-12 15:41:34.265625,-150.26
2019-08-12 15:41:34.281250,-166.08
2019-08-12 15:41:34.296875,-183.88
2019-08-12 15:41:34.312500,-203.92
2019-08-12 15:41:34.328125,-226.22
2019-08-12 15:41:34.343750,-250.55
2019-08-12 15:41:34.359375,-276.63
2019-08-12 15:41:34.375000,-303.73
2019-08-12 15:41:34.390625,-331.17
2019-08-12 15:41:34.406250,-358.22
2019-08-12 15:41:34.421875,-383.96
2019-08-12 15:41:34.437500,-407.18
2019-08-12 15:41:34.453125,-426.38
2019-08-12 15:41:34.468750,-439.88
2019-08-12 15:41:34.484375,-445.94
2019-08-12 15:41:34.500000,-444.52
2019-08-12 15:41:34.515625,-434.18
2019-08-12 15:41:34.531250,-413.8
2019-08-12 15:41:34.546875,-382.89
2019-08-12 15:41:34.562500,-341.74
2019-08-12 15:41:34.578125,-291.51
2019-08-12 15:41:34.593750,-234.07
2019-08-12 15:41:34.609375,-171.83
2019-08-12 15:41:34.625000,-107.58
2019-08-12 15:41:34.640625,-44.37
2019-08-12 15:41:34.656250,15.59
2019-08-12 15:41:34.671875,70.28
2019-08-12 15:41:34.687500,118.17
2019-08-12 15:41:34.703125,158.37
2019-08-12 15:41:34.718750,190.74
2019-08-12 15:41:34.734375,215.84
2019-08-12 15:41:34.750000,234.88
2019-08-12 15:41:34.765625,249.52
2019-08-12 15:41:34.781250,261.43
2019-08-12 15:41:34.796875,273.11
2019-08-12 15:41:34.812500,286.89
2019-08-12 15:41:34.828125,304.68
2019-08-12 15:41:34.843750,327.9
2019-08-12 15:41:34.859375,357.39
2019-08-12 15:41:34.875000,393.18
2019-08-12 15:41:34.890625,434.71
2019-08-12 15:41:34.906250,480.77
2019-08-12 15:41:34.921875,527.47
2019-08-12 15:41:34.937500,571.99
2019-08-12 15:41:34.953125,611.63
2019-08-12 15:41:34.968750,643.84
2019-08-12 15:41:34.984375,666.5
2019-08-12 15:41:35.000000,678.05
2019-08-12 15:41:35.015625,677.49
2019-08-12 15:41:35.031250,664.33
2019-08-12 15:41:35.046875,641.19
2019-08-12 15:41:35.062500,608.62
2019-08-12 15:41:35.078125,567.25
2019-08-12 15:41:35.093750,517.38
2019-08-12 15:41:35.109375,459.24
2019-08-12 15:41:35.125000,393.28
2019-08-12 15:41:35.140625,320.23
2019-08-12 15:41:35.156250,241.09
2019-08-12 15:41:35.171875,157.05
2019-08-12 15:41:35.187500,69.43
2019-08-12 15:41:35.203125,-22.01
2019-08-12 15:41:35.218750,-115.21
2019-08-12 15:41:35.234375,-207.62
2019-08-12 15:41:35.250000,-296.75
2019-08-12 15:41:35.265625,-380.18
2019-08-12 15:41:35.281250,-455.7
2019-08-12 15:41:35.296875,-521.32
2019-08-12 15:41:35.312500,-575.43
2019-08-12 15:41:35.328125,-616.78
2019-08-12 15:41:35.343750,-644.86
2019-08-12 15:41:35.359375,-660.01
2019-08-12 15:41:35.375000,-662.49
2019-08-12 15:41:35.390625,-652.73
2019-08-12 15:41:35.406250,-631.38
2019-08-12 15:41:35.421875,-599.4
2019-08-12 15:41:35.437500,-558.27
2019-08-12 15:41:35.453125,-510.07
2019-08-12 15:41:35.468750,-457.48
2019-08-12 15:41:35.484375,-403.67
2019-08-12 15:41:35.500000,-351.49
2019-08-12 15:41:35.515625,-303.14
2019-08-12 15:41:35.531250,-259.83
2019-08-12 15:41:35.546875,-221.5
2019-08-12 15:41:35.562500,-187.06
2019-08-12 15:41:35.578125,-154.88
2019-08-12 15:41:35.593750,-123.75
2019-08-12 15:41:35.609375,-93.39
2019-08-12 15:41:35.625000,-64.5
2019-08-12 15:41:35.640625,-38.47
2019-08-12 15:41:35.656250,-16.72
2019-08-12 15:41:35.671875,0.13
2019-08-12 15:41:35.687500,12.83
2019-08-12 15:41:35.703125,23.48
2019-08-12 15:41:35.718750,34.82
2019-08-12 15:41:35.734375,48.8
2019-08-12 15:41:35.750000,66.11
2019-08-12 15:41:35.765625,86.28
2019-08-12 15:41:35.781250,108.28
2019-08-12 15:41:35.796875,131.44
2019-08-12 15:41:35.812500,156.48
2019-08-12 15:41:35.828125,185.88
2019-08-12 15:41:35.843750,223.2
2019-08-12 15:41:35.859375,272.05
2019-08-12 15:41:35.875000,334.65
2019-08-12 15:41:35.890625,409.5
2019-08-12 15:41:35.906250,493.61
2019-08-12 15:41:35.921875,581.91
2019-08-12 15:41:35.937500,667.05
2019-08-12 15:41:35.953125,739.72
2019-08-12 15:41:35.968750,789.96
2019-08-12 15:41:35.984375,809.44
2019-08-12 15:41:36.000000,794.32
2019-08-12 15:41:36.015625,746.48
2019-08-12 15:41:36.031250,673.78
2019-08-12 15:41:36.046875,587.76
2019-08-12 15:41:36.062500,499.17
2019-08-12 15:41:36.078125,414.92
2019-08-12 15:41:36.093750,336.7
2019-08-12 15:41:36.109375,262.55
2019-08-12 15:41:36.125000,190.06
2019-08-12 15:41:36.140625,121.98
2019-08-12 15:41:36.156250,62.44
2019-08-12 15:41:36.171875,17.46
2019-08-12 15:41:36.187500,-7.1
2019-08-12 15:41:36.203125,-8.99
2019-08-12 15:41:36.218750,8.02
2019-08-12 15:41:36.234375,34.25
2019-08-12 15:41:36.250000,56.33
2019-08-12 15:41:36.265625,61.34
2019-08-12 15:41:36.281250,41.02
2019-08-12 15:41:36.296875,-6.35
2019-08-12 15:41:36.312500,-76.05
2019-08-12 15:41:36.328125,-159.5
2019-08-12 15:41:36.343750,-247.69
2019-08-12 15:41:36.359375,-332.81
2019-08-12 15:41:36.375000,-407.82
2019-08-12 15:41:36.390625,-465.46
2019-08-12 15:41:36.406250,-498.47
2019-08-12 15:41:36.421875,-501.88
2019-08-12 15:41:36.437500,-475.71
2019-08-12 15:41:36.453125,-427.92
2019-08-12 15:41:36.468750,-372.94
2019-08-12 15:41:36.484375,-327.0
2019-08-12 15:41:36.500000,-301.55
2019-08-12 15:41:36.515625,-298.44
2019-08-12 15:41:36.531250,-309.74
2019-08-12 15:41:36.546875,-321.66
2019-08-12 15:41:36.562500,-321.17
2019-08-12 15:41:36.578125,-301.51
2019-08-12 15:41:36.593750,-264.19
2019-08-12 15:41:36.609375,-217.18
2019-08-12 15:41:36.625000,-171.04
2019-08-12 15:41:36.640625,-135.01
2019-08-12 15:41:36.656250,-114.07
2019-08-12 15:41:36.671875,-108.29
2019-08-12 15:41:36.687500,-113.9
2019-08-12 15:41:36.703125,-125.21
2019-08-12 15:41:36.718750,-137.0
2019-08-12 15:41:36.734375,-145.61
2019-08-12 15:41:36.750000,-149.07
2019-08-12 15:41:36.765625,-145.62
2019-08-12 15:41:36.781250,-133.89
2019-08-12 15:41:36.796875,-112.66
2019-08-12 15:41:36.812500,-81.44
2019-08-12 15:41:36.828125,-41.35
2019-08-12 15:41:36.843750,4.49
2019-08-12 15:41:36.859375,51.52
2019-08-12 15:41:36.875000,95.17
2019-08-12 15:41:36.890625,132.48
2019-08-12 15:41:36.906250,162.95
2019-08-12 15:41:36.921875,188.04
2019-08-12 15:41:36.937500,210.02
2019-08-12 15:41:36.953125,230.35
2019-08-12 15:41:36.968750,248.76
2019-08-12 15:41:36.984375,263.34
2019-08-12 15:41:37.000000,271.56
2019-08-12 15:41:37.015625,271.73
2019-08-12 15:41:37.031250,264.24
2019-08-12 15:41:37.046875,251.76
2019-08-12 15:41:37.062500,238.27
2019-08-12 15:41:37.078125,227.43
2019-08-12 15:41:37.093750,221.04
2019-08-12 15:41:37.109375,218.13
2019-08-12 15:41:37.125000,215.34
2019-08-12 15:41:37.140625,208.27
2019-08-12 15:41:37.156250,194.45
2019-08-12 15:41:37.171875,172.56
2019-08-12 15:41:37.187500,143.49
2019-08-12 15:41:37.203125,109.7
2019-08-12 15:41:37.218750,74.01
2019-08-12 15:41:37.234375,37.9
2019-08-12 15:41:37.250000,0.81
2019-08-12 15:41:37.265625,-39.47
2019-08-12 15:41:37.281250,-84.99
2019-08-12 15:41:37.296875,-136.73
2019-08-12 15:41:37.312500,-194.03
2019-08-12 15:41:37.328125,-254.76
2019-08-12 15:41:37.343750,-314.98
2019-08-12 15:41:37.359375,-368.42
2019-08-12 15:41:37.375000,-406.94
2019-08-12 15:41:37.390625,-422.1
2019-08-12 15:41:37.406250,-407.89
2019-08-12 15:41:37.421875,-364.35
2019-08-12 15:41:37.437500,-301.8
2019-08-12 15:41:37.453125,-233.45
2019-08-12 15:41:37.468750,-173.75
2019-08-12 15:41:37.484375,-133.34
2019-08-12 15:41:37.500000,-114.83
2019-08-12 15:41:37.515625,-112.22
2019-08-12 15:41:37.531250,-114.1
2019-08-12 15:41:37.546875,-107.74
2019-08-12 15:41:37.562500,-85.9
2019-08-12 15:41:37.578125,-48.43
2019-08-12 15:41:37.593750,-0.39
2019-08-12 15:41:37.609375,51.2
2019-08-12 15:41:37.625000,100.98
2019-08-12 15:41:37.640625,146.51
2019-08-12 15:41:37.656250,187.28
2019-08-12 15:41:37.671875,222.64
2019-08-12 15:41:37.687500,251.06
2019-08-12 15:41:37.703125,269.91
2019-08-12 15:41:37.718750,277.39
2019-08-12 15:41:37.734375,274.07
2019-08-12 15:41:37.750000,262.62
2019-08-12 15:41:37.765625,246.96
2019-08-12 15:41:37.781250,230.88
2019-08-12 15:41:37.796875,217.36
2019-08-12 15:41:37.812500,205.54
2019-08-12 15:41:37.828125,192.73
2019-08-12 15:41:37.843750,175.41
2019-08-12 15:41:37.859375,151.14
2019-08-12 15:41:37.875000,119.73
2019-08-12 15:41:37.890625,83.1
2019-08-12 15:41:37.906250,44.9
2019-08-12 15:41:37.921875,9.21
2019-08-12 15:41:37.937500,-20.62
2019-08-12 15:41:37.953125,-43.14
2019-08-12 15:41:37.968750,-58.61
2019-08-12 15:41:37.984375,-68.81
2019-08-12 15:41:38.000000,-76.07
2019-08-12 15:41:38.015625,-82.27
2019-08-12 15:41:38.031250,-88.24
2019-08-12 15:41:38.046875,-93.53
2019-08-12 15:41:38.062500,-96.7
2019-08-12 15:41:38.078125,-96.09
2019-08-12 15:41:38.093750,-91.01
2019-08-12 15:41:38.109375,-81.88
2019-08-12 15:41:38.125000,-70.5
2019-08-12 15:41:38.140625,-59.53
2019-08-12 15:41:38.156250,-51.44
2019-08-12 15:41:38.171875,-47.5
2019-08-12 15:41:38.187500,-47.11
2019-08-12 15:41:38.203125,-47.92
2019-08-12 15:41:38.218750,-47.0
2019-08-12 15:41:38.234375,-42.21
2019-08-12 15:41:38.250000,-33.09
2019-08-12 15:41:38.265625,-21.33
2019-08-12 15:41:38.281250,-10.29
2019-08-12 15:41:38.296875,-4.02
2019-08-12 15:41:38.312500,-6.14
2019-08-12 15:41:38.328125,-19.25
2019-08-12 15:41:38.343750,-44.47
2019-08-12 15:41:38.359375,-79.38
2019-08-12 15:41:38.375000,-119.69
2019-08-12 15:41:38.390625,-158.57
2019-08-12 15:41:38.406250,-187.54
2019-08-12 15:41:38.421875,-198.91
2019-08-12 15:41:38.437500,-188.78
2019-08-12 15:41:38.453125,-159.11
2019-08-12 15:41:38.468750,-117.55
2019-08-12 15:41:38.484375,-74.52
2019-08-12 15:41:38.500000,-38.88
2019-08-12 15:41:38.515625,-14.58
2019-08-12 15:41:38.531250,0.44
2019-08-12 15:41:38.546875,11.88
2019-08-12 15:41:38.562500,24.89
2019-08-12 15:41:38.578125,40.52
2019-08-12 15:41:38.593750,54.74
2019-08-12 15:41:38.609375,60.38
2019-08-12 15:41:38.625000,50.98
2019-08-12 15:41:38.640625,24.32
2019-08-12 15:41:38.656250,-16.39
2019-08-12 15:41:38.671875,-63.35
2019-08-12 15:41:38.687500,-107.12
2019-08-12 15:41:38.703125,-139.91
2019-08-12 15:41:38.718750,-157.86
2019-08-12 15:41:38.734375,-161.13
2019-08-12 15:41:38.750000,-152.45
2019-08-12 15:41:38.765625,-135.06
2019-08-12 15:41:38.781250,-111.12
2019-08-12 15:41:38.796875,-81.86
2019-08-12 15:41:38.812500,-48.41
2019-08-12 15:41:38.828125,-13.15
2019-08-12 15:41:38.843750,19.93
2019-08-12 15:41:38.859375,46.27
2019-08-12 15:41:38.875000,62.61
2019-08-12 15:41:38.890625,68.59
2019-08-12 15:41:38.906250,66.87
2019-08-12 15:41:38.921875,61.69
2019-08-12 15:41:38.937500,56.62
2019-08-12 15:41:38.953125,53.0
2019-08-12 15:41:38.968750,49.95
2019-08-12 15:41:38.984375,45.56
2019-08-12 15:41:39.000000,38.79
2019-08-12 15:41:39.015625,30.46
2019-08-12 15:41:39.031250,23.04
2019-08-12 15:41:39.046875,19.14
2019-08-12 15:41:39.062500,20.07
2019-08-12 15:41:39.078125,25.09
2019-08-12 15:41:39.093750,31.71
2019-08-12 15:41:39.109375,36.88
2019-08-12 15:41:39.125000,38.21
2019-08-12 15:41:39.140625,34.69
2019-08-12 15:41:39.156250,26.85
2019-08-12 15:41:39.171875,16.34
2019-08-12 15:41:39.187500,5.23
2019-08-12 15:41:39.203125,-4.69
2019-08-12 15:41:39.218750,-12.33
2019-08-12 15:41:39.234375,-17.54
2019-08-12 15:41:39.250000,-20.83
2019-08-12 15:41:39.265625,-22.93
2019-08-12 15:41:39.281250,-24.09
2019-08-12 15:41:39.296875,-24.08
2019-08-12 15:41:39.312500,-22.33
2019-08-12 15:41:39.328125,-18.63
2019-08-12 15:41:39.343750,-13.5
2019-08-12 15:41:39.359375,-8.15
2019-08-12 15:41:39.375000,-3.72
2019-08-12 15:41:39.390625,-0.42
2019-08-12 15:41:39.406250,2.83
2019-08-12 15:41:39.421875,7.76
2019-08-12 15:41:39.437500,15.5
2019-08-12 15:41:39.453125,25.49
2019-08-12 15:41:39.468750,35.21
2019-08-12 15:41:39.484375,41.29
2019-08-12 15:41:39.500000,41.31
2019-08-12 15:41:39.515625,35.13
2019-08-12 15:41:39.531250,24.93
2019-08-12 15:41:39.546875,13.86
2019-08-12 15:41:39.562500,4.18
2019-08-12 15:41:39.578125,-4.03
2019-08-12 15:41:39.593750,-12.71
2019-08-12 15:41:39.609375,-24.24
2019-08-12 15:41:39.625000,-39.72
2019-08-12 15:41:39.640625,-57.86
2019-08-12 15:41:39.656250,-75.26
2019-08-12 15:41:39.671875,-87.74
2019-08-12 15:41:39.687500,-92.01
2019-08-12 15:41:39.703125,-87.03
2019-08-12 15:41:39.718750,-74.37
2019-08-12 15:41:39.734375,-57.39
2019-08-12 15:41:39.750000,-39.85
2019-08-12 15:41:39.765625,-24.03
2019-08-12 15:41:39.781250,-9.73
2019-08-12 15:41:39.796875,5.5
2019-08-12 15:41:39.812500,24.72
2019-08-12 15:41:39.828125,49.31
2019-08-12 15:41:39.843750,77.57
2019-08-12 15:41:39.859375,104.98
2019-08-12 15:41:39.875000,126.21
2019-08-12 15:41:39.890625,137.77
2019-08-12 15:41:39.906250,139.53
2019-08-12 15:41:39.921875,134.32
2019-08-12 15:41:39.937500,125.92
2019-08-12 15:41:39.953125,116.72
2019-08-12 15:41:39.968750,106.85
2019-08-12 15:41:39.984375,95.01
2019-08-12 15:41:40.000000,80.57
2019-08-12 15:41:40.015625,65.08
2019-08-12 15:41:40.031250,52.13
2019-08-12 15:41:40.046875,45.74
2019-08-12 15:41:40.062500,48.17
2019-08-12 15:41:40.078125,58.67
2019-08-12 15:41:40.093750,73.73
2019-08-12 15:41:40.109375,88.71
2019-08-12 15:41:40.125000,100.02
2019-08-12 15:41:40.140625,106.36
2019-08-12 15:41:40.156250,108.71
2019-08-12 15:41:40.171875,109.0
2019-08-12 15:41:40.187500,108.44
2019-08-12 15:41:40.203125,106.34
2019-08-12 15:41:40.218750,100.35
2019-08-12 15:41:40.234375,88.01
2019-08-12 15:41:40.250000,68.59
2019-08-12 15:41:40.265625,44.19
2019-08-12 15:41:40.281250,19.19
2019-08-12 15:41:40.296875,-1.79
2019-08-12 15:41:40.312500,-16.11
2019-08-12 15:41:40.328125,-24.44
2019-08-12 15:41:40.343750,-30.09
2019-08-12 15:41:40.359375,-36.93
2019-08-12 15:41:40.375000,-46.95
2019-08-12 15:41:40.390625,-59.07
2019-08-12 15:41:40.406250,-69.78
2019-08-12 15:41:40.421875,-75.29
2019-08-12 15:41:40.437500,-73.75
2019-08-12 15:41:40.453125,-66.42
2019-08-12 15:41:40.468750,-56.86
2019-08-12 15:41:40.484375,-49.13
2019-08-12 15:41:40.500000,-45.59
2019-08-12 15:41:40.515625,-45.77
2019-08-12 15:41:40.531250,-46.87
2019-08-12 15:41:40.546875,-45.41
2019-08-12 15:41:40.562500,-39.31
2019-08-12 15:41:40.578125,-29.02
2019-08-12 15:41:40.593750,-17.25
2019-08-12 15:41:40.609375,-7.46
2019-08-12 15:41:40.625000,-1.85
2019-08-12 15:41:40.640625,-0.32
2019-08-12 15:41:40.656250,-0.65
2019-08-12 15:41:40.671875,-0.13
2019-08-12 15:41:40.687500,2.61
2019-08-12 15:41:40.703125,6.65
2019-08-12 15:41:40.718750,9.27
2019-08-12 15:41:40.734375,7.68
2019-08-12 15:41:40.750000,0.95
2019-08-12 15:41:40.765625,-9.12
2019-08-12 15:41:40.781250,-18.7
2019-08-12 15:41:40.796875,-23.81
2019-08-12 15:41:40.812500,-22.48
2019-08-12 15:41:40.828125,-15.63
2019-08-12 15:41:40.843750,-6.49
2019-08-12 15:41:40.859375,1.25
2019-08-12 15:41:40.875000,5.41
2019-08-12 15:41:40.890625,6.25
2019-08-12 15:41:40.906250,5.96
2019-08-12 15:41:40.921875,7.01
2019-08-12 15:41:40.937500,10.51
2019-08-12 15:41:40.953125,15.42
2019-08-12 15:41:40.968750,19.19
2019-08-12 15:41:40.984375,19.36
2019-08-12 15:41:41.000000,15.14
2019-08-12 15:41:41.015625,8.03
2019-08-12 15:41:41.031250,1.11
2019-08-12 15:41:41.046875,-2.65
2019-08-12 15:41:41.062500,-2.1
2019-08-12 15:41:41.078125,1.52
2019-08-12 15:41:41.093750,5.24
2019-08-12 15:41:41.109375,5.96
2019-08-12 15:41:41.125000,2.17
2019-08-12 15:41:41.140625,-5.38
2019-08-12 15:41:41.156250,-14.17
2019-08-12 15:41:41.171875,-21.45
2019-08-12 15:41:41.187500,-25.62
2019-08-12 15:41:41.203125,-27.01
2019-08-12 15:41:41.218750,-27.39
2019-08-12 15:41:41.234375,-28.73
2019-08-12 15:41:41.250000,-31.86
2019-08-12 15:41:41.265625,-35.84
2019-08-12 15:41:41.281250,-38.44
2019-08-12 15:41:41.296875,-37.37
2019-08-12 15:41:41.312500,-31.77
2019-08-12 15:41:41.328125,-22.78
2019-08-12 15:41:41.343750,-13.13
2019-08-12 15:41:41.359375,-5.7
2019-08-12 15:41:41.375000,-2.06
2019-08-12 15:41:41.390625,-1.68
2019-08-12 15:41:41.406250,-2.42
2019-08-12 15:41:41.421875,-1.84
2019-08-12 15:41:41.437500,1.3
2019-08-12 15:41:41.453125,6.29
2019-08-12 15:41:41.468750,10.9
2019-08-12 15:41:41.484375,12.65
2019-08-12 15:41:41.500000,10.27
2019-08-12 15:41:41.515625,4.52
2019-08-12 15:41:41.531250,-2.27
2019-08-12 15:41:41.546875,-7.37
2019-08-12 15:41:41.562500,-9.14
2019-08-12 15:41:41.578125,-7.8
2019-08-12 15:41:41.593750,-5.08
2019-08-12 15:41:41.609375,-3.11
2019-08-12 15:41:41.625000,-3.08
2019-08-12 15:41:41.640625,-4.58
2019-08-12 15:41:41.656250,-5.85
2019-08-12 15:41:41.671875,-5.03
2019-08-12 15:41:41.687500,-1.42
2019-08-12 15:41:41.703125,3.87
2019-08-12 15:41:41.718750,8.34
2019-08-12 15:41:41.734375,9.46
2019-08-12 15:41:41.750000,6.11
2019-08-12 15:41:41.765625,-0.73
2019-08-12 15:41:41.781250,-8.41
2019-08-12 15:41:41.796875,-13.89
2019-08-12 15:41:41.812500,-15.31
2019-08-12 15:41:41.828125,-12.67
2019-08-12 15:41:41.843750,-7.69
2019-08-12 15:41:41.859375,-2.64
2019-08-12 15:41:41.875000,0.93
2019-08-12 15:41:41.890625,2.88
2019-08-12 15:41:41.906250,4.27
2019-08-12 15:41:41.921875,6.46
2019-08-12 15:41:41.937500,10.12
2019-08-12 15:41:41.953125,14.62
2019-08-12 15:41:41.968750,18.35
2019-08-12 15:41:41.984375,19.55
2019-08-12 15:41:42.000000,17.44
2019-08-12 15:41:42.015625,12.78
2019-08-12 15:41:42.031250,7.61
2019-08-12 15:41:42.046875,4.15
2019-08-12 15:41:42.062500,3.7
2019-08-12 15:41:42.078125,5.94
2019-08-12 15:41:42.093750,9.09
2019-08-12 15:41:42.109375,11.05
2019-08-12 15:41:42.125000,10.5
2019-08-12 15:41:42.140625,7.71
2019-08-12 15:41:42.156250,4.36
2019-08-12 15:41:42.171875,2.44
2019-08-12 15:41:42.187500,2.84
2019-08-12 15:41:42.203125,4.78
2019-08-12 15:41:42.218750,6.21
2019-08-12 15:41:42.234375,5.13
2019-08-12 15:41:42.250000,1.01
2019-08-12 15:41:42.265625,-4.63
2019-08-12 15:41:42.281250,-8.83
2019-08-12 15:41:42.296875,-8.84
2019-08-12 15:41:42.312500,-3.76
2019-08-12 15:41:42.328125,4.61
2019-08-12 15:41:42.343750,12.59
2019-08-12 15:41:42.359375,16.63
2019-08-12 15:41:42.375000,15.19
2019-08-12 15:41:42.390625,9.7
2019-08-12 15:41:42.406250,4.15
2019-08-12 15:41:42.421875,1.73
2019-08-12 15:41:42.437500,5.14
2019-08-12 15:41:42.453125,15.76
2019-08-12 15:41:42.468750,32.93
2019-08-12 15:41:42.484375,54.58
2019-08-12 15:41:42.500000,78.24
2019-08-12 15:41:42.515625,101.65
2019-08-12 15:41:42.531250,122.9
2019-08-12 15:41:42.546875,140.18
2019-08-12 15:41:42.562500,151.53
2019-08-12 15:41:42.578125,155.25
2019-08-12 15:41:42.593750,151.39
2019-08-12 15:41:42.609375,141.77
2019-08-12 15:41:42.625000,129.23
2019-08-12 15:41:42.640625,116.76
2019-08-12 15:41:42.656250,105.8
2019-08-12 15:41:42.671875,95.91
2019-08-12 15:41:42.687500,84.99
2019-08-12 15:41:42.703125,72.11
2019-08-12 15:41:42.718750,53.71
2019-08-12 15:41:42.734375,27.33
2019-08-12 15:41:42.750000,-7.8
2019-08-12 15:41:42.765625,-50.22
2019-08-12 15:41:42.781250,-96.1
2019-08-12 15:41:42.796875,-140.24
2019-08-12 15:41:42.812500,-177.05
2019-08-12 15:41:42.828125,-202.23
2019-08-12 15:41:42.843750,-213.16
2019-08-12 15:41:42.859375,-211.6
2019-08-12 15:41:42.875000,-202.56
2019-08-12 15:41:42.890625,-191.95
2019-08-12 15:41:42.906250,-184.25
2019-08-12 15:41:42.921875,-177.81
2019-08-12 15:41:42.937500,-167.59
2019-08-12 15:41:42.953125,-148.12
2019-08-12 15:41:42.968750,-115.95
2019-08-12 15:41:42.984375,-74.52
2019-08-12 15:41:43.000000,-33.69
2019-08-12 15:41:43.015625,-2.84
2019-08-12 15:41:43.031250,12.77
2019-08-12 15:41:43.046875,14.99
2019-08-12 15:41:43.062500,11.98
2019-08-12 15:41:43.078125,13.35
2019-08-12 15:41:43.093750,25.2
2019-08-12 15:41:43.109375,46.88
2019-08-12 15:41:43.125000,71.06
2019-08-12 15:41:43.140625,88.16
2019-08-12 15:41:43.156250,92.1
2019-08-12 15:41:43.171875,81.99
2019-08-12 15:41:43.187500,63.6
2019-08-12 15:41:43.203125,45.93
2019-08-12 15:41:43.218750,36.25
2019-08-12 15:41:43.234375,37.03
2019-08-12 15:41:43.250000,45.69
2019-08-12 15:41:43.265625,56.37
2019-08-12 15:41:43.281250,62.9
2019-08-12 15:41:43.296875,60.9
2019-08-12 15:41:43.312500,48.17
2019-08-12 15:41:43.328125,25.28
2019-08-12 15:41:43.343750,-4.77
2019-08-12 15:41:43.359375,-36.66
2019-08-12 15:41:43.375000,-63.2
2019-08-12 15:41:43.390625,-76.45
2019-08-12 15:41:43.406250,-69.97
2019-08-12 15:41:43.421875,-41.19
2019-08-12 15:41:43.437500,6.86
2019-08-12 15:41:43.453125,65.21
2019-08-12 15:41:43.468750,120.97
2019-08-12 15:41:43.484375,160.54
2019-08-12 15:41:43.500000,173.56
2019-08-12 15:41:43.515625,156.46
2019-08-12 15:41:43.531250,113.96
2019-08-12 15:41:43.546875,57.65
2019-08-12 15:41:43.562500,2.13
2019-08-12 15:41:43.578125,-40.08
2019-08-12 15:41:43.593750,-62.77
2019-08-12 15:41:43.609375,-67.22
2019-08-12 15:41:43.625000,-60.56
2019-08-12 15:41:43.640625,-51.89
2019-08-12 15:41:43.656250,-48.38
2019-08-12 15:41:43.671875,-53.14
2019-08-12 15:41:43.687500,-65.67
2019-08-12 15:41:43.703125,-83.41
2019-08-12 15:41:43.718750,-103.41
2019-08-12 15:41:43.734375,-122.76
2019-08-12 15:41:43.750000,-138.17
2019-08-12 15:41:43.765625,-145.71
2019-08-12 15:41:43.781250,-141.38
2019-08-12 15:41:43.796875,-122.8
2019-08-12 15:41:43.812500,-91.0
2019-08-12 15:41:43.828125,-51.04
2019-08-12 15:41:43.843750,-10.88
2019-08-12 15:41:43.859375,21.27
2019-08-12 15:41:43.875000,39.63
2019-08-12 15:41:43.890625,42.61
2019-08-12 15:41:43.906250,32.84
2019-08-12 15:41:43.921875,15.7
2019-08-12 15:41:43.937500,-2.96
2019-08-12 15:41:43.953125,-18.47
2019-08-12 15:41:43.968750,-28.22
2019-08-12 15:41:43.984375,-31.41
2019-08-12 15:41:44.000000,-28.44
2019-08-12 15:41:44.015625,-20.41
2019-08-12 15:41:44.031250,-8.97
2019-08-12 15:41:44.046875,3.76
2019-08-12 15:41:44.062500,15.46
2019-08-12 15:41:44.078125,24.0
2019-08-12 15:41:44.093750,28.07
2019-08-12 15:41:44.109375,27.37
2019-08-12 15:41:44.125000,22.64
2019-08-12 15:41:44.140625,15.33
2019-08-12 15:41:44.156250,7.3
2019-08-12 15:41:44.171875,0.59
2019-08-12 15:41:44.187500,-2.94
2019-08-12 15:41:44.203125,-1.98
2019-08-12 15:41:44.218750,3.68
2019-08-12 15:41:44.234375,13.07
2019-08-12 15:41:44.250000,24.26
2019-08-12 15:41:44.265625,35.17
2019-08-12 15:41:44.281250,44.24
2019-08-12 15:41:44.296875,50.83
2019-08-12 15:41:44.312500,54.96
2019-08-12 15:41:44.328125,56.93
2019-08-12 15:41:44.343750,56.88
2019-08-12 15:41:44.359375,54.71
2019-08-12 15:41:44.375000,50.07
2019-08-12 15:41:44.390625,42.28
2019-08-12 15:41:44.406250,30.29
2019-08-12 15:41:44.421875,12.83
2019-08-12 15:41:44.437500,-10.84
2019-08-12 15:41:44.453125,-39.82
2019-08-12 15:41:44.468750,-70.69
2019-08-12 15:41:44.484375,-97.89
2019-08-12 15:41:44.500000,-115.13
2019-08-12 15:41:44.515625,-117.65
2019-08-12 15:41:44.531250,-104.06
2019-08-12 15:41:44.546875,-76.89
2019-08-12 15:41:44.562500,-41.67
2019-08-12 15:41:44.578125,-5.16
2019-08-12 15:41:44.593750,26.4
2019-08-12 15:41:44.609375,48.48
2019-08-12 15:41:44.625000,58.76
2019-08-12 15:41:44.640625,57.31
2019-08-12 15:41:44.656250,46.45
2019-08-12 15:41:44.671875,30.17
2019-08-12 15:41:44.687500,13.21
2019-08-12 15:41:44.703125,-0.29
2019-08-12 15:41:44.718750,-7.99
2019-08-12 15:41:44.734375,-10.06
2019-08-12 15:41:44.750000,-8.72
2019-08-12 15:41:44.765625,-6.91
2019-08-12 15:41:44.781250,-6.72
2019-08-12 15:41:44.796875,-8.4
2019-08-12 15:41:44.812500,-10.48
2019-08-12 15:41:44.828125,-10.78
2019-08-12 15:41:44.843750,-7.79
2019-08-12 15:41:44.859375,-1.52
2019-08-12 15:41:44.875000,6.61
2019-08-12 15:41:44.890625,14.58
2019-08-12 15:41:44.906250,20.81
2019-08-12 15:41:44.921875,24.68
2019-08-12 15:41:44.937500,26.39
2019-08-12 15:41:44.953125,26.24
2019-08-12 15:41:44.968750,24.02
2019-08-12 15:41:44.984375,19.03
2019-08-12 15:41:45.000000,10.71
2019-08-12 15:41:45.015625,-0.55
2019-08-12 15:41:45.031250,-13.06
2019-08-12 15:41:45.046875,-24.35
2019-08-12 15:41:45.062500,-32.38
2019-08-12 15:41:45.078125,-36.62
2019-08-12 15:41:45.093750,-38.59
2019-08-12 15:41:45.109375,-40.93
2019-08-12 15:41:45.125000,-45.69
2019-08-12 15:41:45.140625,-52.79
2019-08-12 15:41:45.156250,-59.67
2019-08-12 15:41:45.171875,-62.49
2019-08-12 15:41:45.187500,-58.1
2019-08-12 15:41:45.203125,-46.18
2019-08-12 15:41:45.218750,-29.69
2019-08-12 15:41:45.234375,-13.93
2019-08-12 15:41:45.250000,-4.13
2019-08-12 15:41:45.265625,-2.74
2019-08-12 15:41:45.281250,-8.19
2019-08-12 15:41:45.296875,-15.46
2019-08-12 15:41:45.312500,-18.3
2019-08-12 15:41:45.328125,-12.22
2019-08-12 15:41:45.343750,3.21
2019-08-12 15:41:45.359375,24.07
2019-08-12 15:41:45.375000,43.44
2019-08-12 15:41:45.390625,54.4
2019-08-12 15:41:45.406250,52.94
2019-08-12 15:41:45.421875,39.34
2019-08-12 15:41:45.437500,17.45
2019-08-12 15:41:45.453125,-6.93
2019-08-12 15:41:45.468750,-28.36
2019-08-12 15:41:45.484375,-43.29
2019-08-12 15:41:45.500000,-49.0
2019-08-12 15:41:45.515625,-44.17
2019-08-12 15:41:45.531250,-29.08
2019-08-12 15:41:45.546875,-5.44
2019-08-12 15:41:45.562500,24.1
2019-08-12 15:41:45.578125,56.24
2019-08-12 15:41:45.593750,87.69
2019-08-12 15:41:45.609375,115.23
2019-08-12 15:41:45.625000,136.33
2019-08-12 15:41:45.640625,149.79
2019-08-12 15:41:45.656250,155.79
2019-08-12 15:41:45.671875,155.93
2019-08-12 15:41:45.687500,152.91
2019-08-12 15:41:45.703125,149.39
2019-08-12 15:41:45.718750,146.99
2019-08-12 15:41:45.734375,146.29
2019-08-12 15:41:45.750000,146.69
2019-08-12 15:41:45.765625,147.0
2019-08-12 15:41:45.781250,146.24
2019-08-12 15:41:45.796875,143.66
2019-08-12 15:41:45.812500,139.25
2019-08-12 15:41:45.828125,133.44
2019-08-12 15:41:45.843750,128.06
2019-08-12 15:41:45.859375,122.21
2019-08-12 15:41:45.875000,114.77
2019-08-12 15:41:45.890625,104.59
2019-08-12 15:41:45.906250,90.94
2019-08-12 15:41:45.921875,74.04
2019-08-12 15:41:45.937500,54.66
2019-08-12 15:41:45.953125,34.39
2019-08-12 15:41:45.968750,15.1
2019-08-12 15:41:45.984375,-1.67
2019-08-12 15:41:46.000000,-15.33
2019-08-12 15:41:46.015625,-25.7
2019-08-12 15:41:46.031250,-33.1
2019-08-12 15:41:46.046875,-37.86
2019-08-12 15:41:46.062500,-39.99
2019-08-12 15:41:46.078125,-39.72
2019-08-12 15:41:46.093750,-37.14
2019-08-12 15:41:46.109375,-32.76
2019-08-12 15:41:46.125000,-27.86
2019-08-12 15:41:46.140625,-24.67
2019-08-12 15:41:46.156250,-25.56
2019-08-12 15:41:46.171875,-32.75
2019-08-12 15:41:46.187500,-47.87
2019-08-12 15:41:46.203125,-68.54
2019-08-12 15:41:46.218750,-92.91
2019-08-12 15:41:46.234375,-118.94
2019-08-12 15:41:46.250000,-145.18
2019-08-12 15:41:46.265625,-171.09
2019-08-12 15:41:46.281250,-197.2
2019-08-12 15:41:46.296875,-224.5
2019-08-12 15:41:46.312500,-254.55
2019-08-12 15:41:46.328125,-289.25
2019-08-12 15:41:46.343750,-330.29
2019-08-12 15:41:46.359375,-378.52
2019-08-12 15:41:46.375000,-432.05
2019-08-12 15:41:46.390625,-485.45
2019-08-12 15:41:46.406250,-530.43
2019-08-12 15:41:46.421875,-558.27
2019-08-12 15:41:46.437500,-562.98
2019-08-12 15:41:46.453125,-543.84
2019-08-12 15:41:46.468750,-505.95
2019-08-12 15:41:46.484375,-458.01
2019-08-12 15:41:46.500000,-409.31
2019-08-12 15:41:46.515625,-366.13
2019-08-12 15:41:46.531250,-330.52
2019-08-12 15:41:46.546875,-301.07
2019-08-12 15:41:46.562500,-275.05
2019-08-12 15:41:46.578125,-250.29
2019-08-12 15:41:46.593750,-225.95
2019-08-12 15:41:46.609375,-202.16
2019-08-12 15:41:46.625000,-179.17
2019-08-12 15:41:46.640625,-156.93
2019-08-12 15:41:46.656250,-134.79
2019-08-12 15:41:46.671875,-112.01
2019-08-12 15:41:46.687500,-88.13
2019-08-12 15:41:46.703125,-63.06
2019-08-12 15:41:46.718750,-37.33
2019-08-12 15:41:46.734375,-11.81
2019-08-12 15:41:46.750000,12.67
2019-08-12 15:41:46.765625,35.65
2019-08-12 15:41:46.781250,56.9
2019-08-12 15:41:46.796875,76.0
2019-08-12 15:41:46.812500,91.76
2019-08-12 15:41:46.828125,102.01
2019-08-12 15:41:46.843750,104.43
2019-08-12 15:41:46.859375,98.16
2019-08-12 15:41:46.875000,85.27
2019-08-12 15:41:46.890625,70.9
2019-08-12 15:41:46.906250,61.78
2019-08-12 15:41:46.921875,63.34
2019-08-12 15:41:46.937500,77.18
2019-08-12 15:41:46.953125,100.23
2019-08-12 15:41:46.968750,125.98
2019-08-12 15:41:46.984375,147.28
2019-08-12 15:41:47.000000,158.99
2019-08-12 15:41:47.015625,159.43
2019-08-12 15:41:47.031250,149.91
2019-08-12 15:41:47.046875,133.33
2019-08-12 15:41:47.062500,112.89
2019-08-12 15:41:47.078125,91.29
2019-08-12 15:41:47.093750,70.9
2019-08-12 15:41:47.109375,53.93
2019-08-12 15:41:47.125000,42.58
2019-08-12 15:41:47.140625,38.62
2019-08-12 15:41:47.156250,43.48
2019-08-12 15:41:47.171875,57.95
2019-08-12 15:41:47.187500,82.14
2019-08-12 15:41:47.203125,115.33
2019-08-12 15:41:47.218750,155.74
2019-08-12 15:41:47.234375,200.6
2019-08-12 15:41:47.250000,246.53
2019-08-12 15:41:47.265625,290.11
2019-08-12 15:41:47.281250,328.35
2019-08-12 15:41:47.296875,358.79
2019-08-12 15:41:47.312500,379.32
2019-08-12 15:41:47.328125,388.14
2019-08-12 15:41:47.343750,384.14
2019-08-12 15:41:47.359375,367.63
2019-08-12 15:41:47.375000,341.13
2019-08-12 15:41:47.390625,309.24
2019-08-12 15:41:47.406250,277.61
2019-08-12 15:41:47.421875,251.03
2019-08-12 15:41:47.437500,231.72
2019-08-12 15:41:47.453125,218.77
2019-08-12 15:41:47.468750,209.14
2019-08-12 15:41:47.484375,199.56
2019-08-12 15:41:47.500000,188.35
2019-08-12 15:41:47.515625,175.91
2019-08-12 15:41:47.531250,163.82
2019-08-12 15:41:47.546875,153.28
2019-08-12 15:41:47.562500,144.0
2019-08-12 15:41:47.578125,134.22
2019-08-12 15:41:47.593750,121.73
2019-08-12 15:41:47.609375,105.34
2019-08-12 15:41:47.625000,85.83
2019-08-12 15:41:47.640625,65.56
2019-08-12 15:41:47.656250,47.45
2019-08-12 15:41:47.671875,33.53
2019-08-12 15:41:47.687500,24.39
2019-08-12 15:41:47.703125,19.34
2019-08-12 15:41:47.718750,17.17
2019-08-12 15:41:47.734375,17.04
2019-08-12 15:41:47.750000,18.75
2019-08-12 15:41:47.765625,22.43
2019-08-12 15:41:47.781250,28.03
2019-08-12 15:41:47.796875,34.85
2019-08-12 15:41:47.812500,41.38
2019-08-12 15:41:47.828125,45.77
2019-08-12 15:41:47.843750,46.36
2019-08-12 15:41:47.859375,42.35
2019-08-12 15:41:47.875000,33.98
2019-08-12 15:41:47.890625,22.41
2019-08-12 15:41:47.906250,9.44
2019-08-12 15:41:47.921875,-3.04
2019-08-12 15:41:47.937500,-13.53
2019-08-12 15:41:47.953125,-21.1
2019-08-12 15:41:47.968750,-25.39
2019-08-12 15:41:47.984375,-26.42
2019-08-12 15:41:48.000000,-24.09
2019-08-12 15:41:48.015625,-18.44
2019-08-12 15:41:48.031250,-10.03
2019-08-12 15:41:48.046875,-0.39
2019-08-12 15:41:48.062500,7.81
2019-08-12 15:41:48.078125,11.3
2019-08-12 15:41:48.093750,7.2
2019-08-12 15:41:48.109375,-5.73
2019-08-12 15:41:48.125000,-26.27
2019-08-12 15:41:48.140625,-50.39
2019-08-12 15:41:48.156250,-72.59
2019-08-12 15:41:48.171875,-87.53
2019-08-12 15:41:48.187500,-91.56
2019-08-12 15:41:48.203125,-83.49
2019-08-12 15:41:48.218750,-64.61
2019-08-12 15:41:48.234375,-37.98
2019-08-12 15:41:48.250000,-7.47
2019-08-12 15:41:48.265625,22.71
2019-08-12 15:41:48.281250,49.46
2019-08-12 15:41:48.296875,69.78
2019-08-12 15:41:48.312500,80.79
2019-08-12 15:41:48.328125,80.3
2019-08-12 15:41:48.343750,68.08
2019-08-12 15:41:48.359375,46.74
2019-08-12 15:41:48.375000,21.69
2019-08-12 15:41:48.390625,-0.32
2019-08-12 15:41:48.406250,-13.66
2019-08-12 15:41:48.421875,-13.42
2019-08-12 15:41:48.437500,1.31
2019-08-12 15:41:48.453125,27.5
2019-08-12 15:41:48.468750,59.71
2019-08-12 15:41:48.484375,92.28
2019-08-12 15:41:48.500000,121.05
2019-08-12 15:41:48.515625,143.67
2019-08-12 15:41:48.531250,158.8
2019-08-12 15:41:48.546875,164.9
2019-08-12 15:41:48.562500,164.06
2019-08-12 15:41:48.578125,158.81
2019-08-12 15:41:48.593750,151.82
2019-08-12 15:41:48.609375,145.71
2019-08-12 15:41:48.625000,143.02
2019-08-12 15:41:48.640625,146.11
2019-08-12 15:41:48.656250,156.46
2019-08-12 15:41:48.671875,174.01
2019-08-12 15:41:48.687500,196.22
2019-08-12 15:41:48.703125,224.05
2019-08-12 15:41:48.718750,257.4
2019-08-12 15:41:48.734375,294.39
2019-08-12 15:41:48.750000,331.23
2019-08-12 15:41:48.765625,363.22
2019-08-12 15:41:48.781250,386.5
2019-08-12 15:41:48.796875,399.26
2019-08-12 15:41:48.812500,402.2
2019-08-12 15:41:48.828125,374.25
2019-08-12 15:41:48.843750,307.34
2019-08-12 15:41:48.859375,206.78
2019-08-12 15:41:48.875000,90.71
2019-08-12 15:41:48.890625,-18.67
2019-08-12 15:41:48.906250,-105.92
2019-08-12 15:41:48.921875,-166.57
2019-08-12 15:41:48.937500,-204.48
2019-08-12 15:41:48.953125,-222.27
2019-08-12 15:41:48.968750,-231.89
2019-08-12 15:41:48.984375,-239.36
2019-08-12 15:41:49.000000,-248.47
2019-08-12 15:41:49.015625,-261.55
2019-08-12 15:41:49.031250,-279.33
2019-08-12 15:41:49.046875,-300.02
2019-08-12 15:41:49.062500,-318.92
2019-08-12 15:41:49.078125,-329.69
2019-08-12 15:41:49.093750,-326.2
2019-08-12 15:41:49.109375,-308.01
2019-08-12 15:41:49.125000,-277.27
2019-08-12 15:41:49.140625,-241.72
2019-08-12 15:41:49.156250,-211.7
2019-08-12 15:41:49.171875,-196.12
2019-08-12 15:41:49.187500,-199.08
2019-08-12 15:41:49.203125,-218.99
2019-08-12 15:41:49.218750,-250.47
2019-08-12 15:41:49.234375,-287.38
2019-08-12 15:41:49.250000,-325.48
2019-08-12 15:41:49.265625,-358.78
2019-08-12 15:41:49.281250,-381.47
2019-08-12 15:41:49.296875,-388.07
2019-08-12 15:41:49.312500,-374.75
2019-08-12 15:41:49.328125,-340.72
2019-08-12 15:41:49.343750,-289.02
2019-08-12 15:41:49.359375,-225.99
2019-08-12 15:41:49.375000,-160.03
2019-08-12 15:41:49.390625,-99.57
2019-08-12 15:41:49.406250,-49.08
2019-08-12 15:41:49.421875,-9.76
2019-08-12 15:41:49.437500,19.63
2019-08-12 15:41:49.453125,41.13
2019-08-12 15:41:49.468750,56.39
2019-08-12 15:41:49.484375,66.46
2019-08-12 15:41:49.500000,71.92
2019-08-12 15:41:49.515625,73.21
2019-08-12 15:41:49.531250,70.71
2019-08-12 15:41:49.546875,65.58
2019-08-12 15:41:49.562500,58.95
2019-08-12 15:41:49.578125,52.1
2019-08-12 15:41:49.593750,45.64
2019-08-12 15:41:49.609375,39.35
2019-08-12 15:41:49.625000,32.33
2019-08-12 15:41:49.640625,23.5
2019-08-12 15:41:49.656250,12.06
2019-08-12 15:41:49.671875,-2.14
2019-08-12 15:41:49.687500,-18.32
2019-08-12 15:41:49.703125,-35.08
2019-08-12 15:41:49.718750,-50.52
2019-08-12 15:41:49.734375,-63.12
2019-08-12 15:41:49.750000,-71.99
2019-08-12 15:41:49.765625,-77.04
2019-08-12 15:41:49.781250,-78.84
2019-08-12 15:41:49.796875,-78.39
2019-08-12 15:41:49.812500,-76.91
2019-08-12 15:41:49.828125,-75.47
2019-08-12 15:41:49.843750,-74.88
2019-08-12 15:41:49.859375,-75.35
2019-08-12 15:41:49.875000,-77.01
2019-08-12 15:41:49.890625,-79.88
2019-08-12 15:41:49.906250,-83.91
2019-08-12 15:41:49.921875,-88.97
2019-08-12 15:41:49.937500,-94.75
2019-08-12 15:41:49.953125,-100.57
2019-08-12 15:41:49.968750,-105.38
2019-08-12 15:41:49.984375,-108.62
2019-08-12 15:41:50.000000,-108.12
2019-08-12 15:41:50.015625,-101.96
2019-08-12 15:41:50.031250,-89.07
2019-08-12 15:41:50.046875,-69.47
2019-08-12 15:41:50.062500,-44.47
2019-08-12 15:41:50.078125,-16.4
2019-08-12 15:41:50.093750,11.96
2019-08-12 15:41:50.109375,38.11
2019-08-12 15:41:50.125000,60.32
2019-08-12 15:41:50.140625,78.27
2019-08-12 15:41:50.156250,92.14
2019-08-12 15:41:50.171875,102.4
2019-08-12 15:41:50.187500,109.22
2019-08-12 15:41:50.203125,112.22
2019-08-12 15:41:50.218750,110.66
2019-08-12 15:41:50.234375,103.88
2019-08-12 15:41:50.250000,91.92
2019-08-12 15:41:50.265625,75.76
2019-08-12 15:41:50.281250,57.82
2019-08-12 15:41:50.296875,41.06
2019-08-12 15:41:50.312500,28.83
2019-08-12 15:41:50.328125,24.33
2019-08-12 15:41:50.343750,30.02
2019-08-12 15:41:50.359375,46.42
2019-08-12 15:41:50.375000,71.23
2019-08-12 15:41:50.390625,99.38
2019-08-12 15:41:50.406250,121.94
2019-08-12 15:41:50.421875,131.12
2019-08-12 15:41:50.437500,122.63
2019-08-12 15:41:50.453125,97.84
2019-08-12 15:41:50.468750,63.48
2019-08-12 15:41:50.484375,29.22
2019-08-12 15:41:50.500000,3.87
2019-08-12 15:41:50.515625,-7.58
2019-08-12 15:41:50.531250,-5.04
2019-08-12 15:41:50.546875,7.71
2019-08-12 15:41:50.562500,25.61
2019-08-12 15:41:50.578125,43.88
2019-08-12 15:41:50.593750,58.95
2019-08-12 15:41:50.609375,68.57
2019-08-12 15:41:50.625000,71.43
2019-08-12 15:41:50.640625,67.16
2019-08-12 15:41:50.656250,56.49
2019-08-12 15:41:50.671875,41.44
2019-08-12 15:41:50.687500,24.85
2019-08-12 15:41:50.703125,9.77
2019-08-12 15:41:50.718750,-1.47
2019-08-12 15:41:50.734375,-7.94
2019-08-12 15:41:50.750000,-9.98
2019-08-12 15:41:50.765625,-8.77
2019-08-12 15:41:50.781250,-5.76
2019-08-12 15:41:50.796875,-2.25
2019-08-12 15:41:50.812500,0.79
2019-08-12 15:41:50.828125,2.55
2019-08-12 15:41:50.843750,2.32
2019-08-12 15:41:50.859375,-0.68
2019-08-12 15:41:50.875000,-7.12
2019-08-12 15:41:50.890625,-17.04
2019-08-12 15:41:50.906250,-29.38
2019-08-12 15:41:50.921875,-41.85
2019-08-12 15:41:50.937500,-51.56
2019-08-12 15:41:50.953125,-55.92
2019-08-12 15:41:50.968750,-54.0
2019-08-12 15:41:50.984375,-46.8
2019-08-12 15:41:51.000000,-36.97
2019-08-12 15:41:51.015625,-27.61
2019-08-12 15:41:51.031250,-20.95
2019-08-12 15:41:51.046875,-17.61
2019-08-12 15:41:51.062500,-16.78
2019-08-12 15:41:51.078125,-17.04
2019-08-12 15:41:51.093750,-17.2
2019-08-12 15:41:51.109375,-16.7
2019-08-12 15:41:51.125000,-15.34
2019-08-12 15:41:51.140625,-12.74
2019-08-12 15:41:51.156250,-8.21
2019-08-12 15:41:51.171875,-1.15
2019-08-12 15:41:51.187500,8.12
2019-08-12 15:41:51.203125,17.96
2019-08-12 15:41:51.218750,25.69
2019-08-12 15:41:51.234375,28.78
2019-08-12 15:41:51.250000,26.13
2019-08-12 15:41:51.265625,18.81
2019-08-12 15:41:51.281250,9.78
2019-08-12 15:41:51.296875,2.52
2019-08-12 15:41:51.312500,-0.67
2019-08-12 15:41:51.328125,0.18
2019-08-12 15:41:51.343750,2.74
2019-08-12 15:41:51.359375,3.59
2019-08-12 15:41:51.375000,0.38
2019-08-12 15:41:51.390625,-7.09
2019-08-12 15:41:51.406250,-16.67
2019-08-12 15:41:51.421875,-24.98
2019-08-12 15:41:51.437500,-29.34
2019-08-12 15:41:51.453125,-29.15
2019-08-12 15:41:51.468750,-26.16
2019-08-12 15:41:51.484375,-23.23
2019-08-12 15:41:51.500000,-22.53
2019-08-12 15:41:51.515625,-23.88
2019-08-12 15:41:51.531250,-25.3
2019-08-12 15:41:51.546875,-24.48
2019-08-12 15:41:51.562500,-20.56
2019-08-12 15:41:51.578125,-14.78
2019-08-12 15:41:51.593750,-9.63
2019-08-12 15:41:51.609375,-6.92
2019-08-12 15:41:51.625000,-6.14
2019-08-12 15:41:51.640625,-4.21
2019-08-12 15:41:51.656250,3.29
2019-08-12 15:41:51.671875,18.93
2019-08-12 15:41:51.687500,41.21
2019-08-12 15:41:51.703125,64.44
2019-08-12 15:41:51.718750,80.94
2019-08-12 15:41:51.734375,84.37
2019-08-12 15:41:51.750000,72.56
2019-08-12 15:41:51.765625,48.53
2019-08-12 15:41:51.781250,16.92
2019-08-12 15:41:51.796875,-14.55
2019-08-12 15:41:51.812500,-38.29
2019-08-12 15:41:51.828125,-49.64
2019-08-12 15:41:51.843750,-48.37
2019-08-12 15:41:51.859375,-37.98
2019-08-12 15:41:51.875000,-23.33
2019-08-12 15:41:51.890625,-8.42
2019-08-12 15:41:51.906250,4.6
2019-08-12 15:41:51.921875,14.95
2019-08-12 15:41:51.937500,22.89
2019-08-12 15:41:51.953125,28.5
2019-08-12 15:41:51.968750,31.49
2019-08-12 15:41:51.984375,31.62
2019-08-12 15:41:52.000000,29.06
2019-08-12 15:41:52.015625,24.49
2019-08-12 15:41:52.031250,18.85
2019-08-12 15:41:52.046875,13.16
2019-08-12 15:41:52.062500,7.83
2019-08-12 15:41:52.078125,3.4
2019-08-12 15:41:52.093750,0.16
2019-08-12 15:41:52.109375,-1.96
2019-08-12 15:41:52.125000,-3.19
2019-08-12 15:41:52.140625,-3.79
2019-08-12 15:41:52.156250,-3.98
2019-08-12 15:41:52.171875,-3.87
2019-08-12 15:41:52.187500,-3.42
2019-08-12 15:41:52.203125,-3.31
2019-08-12 15:41:52.218750,-4.32
2019-08-12 15:41:52.234375,-7.21
2019-08-12 15:41:52.250000,-11.83
2019-08-12 15:41:52.265625,-16.21
2019-08-12 15:41:52.281250,-16.23
2019-08-12 15:41:52.296875,-6.99
2019-08-12 15:41:52.312500,14.69
2019-08-12 15:41:52.328125,48.89
2019-08-12 15:41:52.343750,89.91
2019-08-12 15:41:52.359375,129.3
2019-08-12 15:41:52.375000,158.75
2019-08-12 15:41:52.390625,172.95
2019-08-12 15:41:52.406250,171.06
2019-08-12 15:41:52.421875,156.15
2019-08-12 15:41:52.437500,132.91
2019-08-12 15:41:52.453125,103.69
2019-08-12 15:41:52.468750,72.75
2019-08-12 15:41:52.484375,41.96
2019-08-12 15:41:52.500000,12.48
2019-08-12 15:41:52.515625,-14.23
2019-08-12 15:41:52.531250,-36.33
2019-08-12 15:41:52.546875,-52.3
2019-08-12 15:41:52.562500,-61.77
2019-08-12 15:41:52.578125,-65.86
2019-08-12 15:41:52.593750,-66.58
2019-08-12 15:41:52.609375,-65.75
2019-08-12 15:41:52.625000,-65.06
2019-08-12 15:41:52.640625,-64.92
2019-08-12 15:41:52.656250,-64.72
2019-08-12 15:41:52.671875,-63.44
2019-08-12 15:41:52.687500,-60.4
2019-08-12 15:41:52.703125,-55.62
2019-08-12 15:41:52.718750,-49.88
2019-08-12 15:41:52.734375,-44.39
2019-08-12 15:41:52.750000,-39.83
2019-08-12 15:41:52.765625,-36.84
2019-08-12 15:41:52.781250,-35.22
2019-08-12 15:41:52.796875,-34.23
2019-08-12 15:41:52.812500,-32.97
2019-08-12 15:41:52.828125,-30.83
2019-08-12 15:41:52.843750,-27.72
2019-08-12 15:41:52.859375,-24.04
2019-08-12 15:41:52.875000,-20.44
2019-08-12 15:41:52.890625,-17.35
2019-08-12 15:41:52.906250,-15.11
2019-08-12 15:41:52.921875,-13.68
2019-08-12 15:41:52.937500,-12.68
2019-08-12 15:41:52.953125,-11.63
2019-08-12 15:41:52.968750,-10.23
2019-08-12 15:41:52.984375,-8.43
2019-08-12 15:41:53.000000,-6.38
2019-08-12 15:41:53.015625,-4.38
2019-08-12 15:41:53.031250,-2.74
2019-08-12 15:41:53.046875,-1.57
2019-08-12 15:41:53.062500,-0.81
2019-08-12 15:41:53.078125,-0.31
2019-08-12 15:41:53.093750,0.09
2019-08-12 15:41:53.109375,0.55
2019-08-12 15:41:53.125000,1.1
2019-08-12 15:41:53.140625,1.75
2019-08-12 15:41:53.156250,2.42
2019-08-12 15:41:53.171875,3.07
2019-08-12 15:41:53.187500,3.61
2019-08-12 15:41:53.203125,3.93
2019-08-12 15:41:53.218750,4.0
2019-08-12 15:41:53.234375,3.83
2019-08-12 15:41:53.250000,3.45
2019-08-12 15:41:53.265625,2.95
2019-08-12 15:41:53.281250,2.38
2019-08-12 15:41:53.296875,1.73
2019-08-12 15:41:53.312500,0.94
2019-08-12 15:41:53.328125,-0.07
2019-08-12 15:41:53.343750,-1.38
2019-08-12 15:41:53.359375,-3.04
2019-08-12 15:41:53.375000,-4.99
2019-08-12 15:41:53.390625,-7.12
2019-08-12 15:41:53.406250,-9.3
2019-08-12 15:41:53.421875,-11.48
2019-08-12 15:41:53.437500,-13.7
2019-08-12 15:41:53.453125,-16.11
2019-08-12 15:41:53.468750,-18.91
2019-08-12 15:41:53.484375,-22.28
2019-08-12 15:41:53.500000,-26.28
2019-08-12 15:41:53.515625,-30.84
2019-08-12 15:41:53.531250,-35.68
2019-08-12 15:41:53.546875,-40.5
2019-08-12 15:41:53.562500,-45.15
2019-08-12 15:41:53.578125,-49.62
2019-08-12 15:41:53.593750,-54.23
2019-08-12 15:41:53.609375,-59.43
2019-08-12 15:41:53.625000,-65.68
2019-08-12 15:41:53.640625,-73.18
2019-08-12 15:41:53.656250,-81.68
2019-08-12 15:41:53.671875,-90.6
2019-08-12 15:41:53.687500,-99.18
2019-08-12 15:41:53.703125,-106.84
2019-08-12 15:41:53.718750,-113.29
2019-08-12 15:41:53.734375,-118.68
2019-08-12 15:41:53.750000,-123.31
2019-08-12 15:41:53.765625,-127.26
2019-08-12 15:41:53.781250,-129.82
2019-08-12 15:41:53.796875,-129.91
2019-08-12 15:41:53.812500,-125.59
2019-08-12 15:41:53.828125,-115.02
2019-08-12 15:41:53.843750,-97.33
2019-08-12 15:41:53.859375,-73.04
2019-08-12 15:41:53.875000,-44.12
2019-08-12 15:41:53.890625,-13.28
2019-08-12 15:41:53.906250,16.9
2019-08-12 15:41:53.921875,44.84
2019-08-12 15:41:53.937500,70.2
2019-08-12 15:41:53.953125,93.31
2019-08-12 15:41:53.968750,114.66
2019-08-12 15:41:53.984375,133.82
2019-08-12 15:41:54.000000,149.63
2019-08-12 15:41:54.015625,161.19
2019-08-12 15:41:54.031250,168.5
2019-08-12 15:41:54.046875,172.65
2019-08-12 15:41:54.062500,174.88
2019-08-12 15:41:54.078125,175.13
2019-08-12 15:41:54.093750,171.1
2019-08-12 15:41:54.109375,159.18
2019-08-12 15:41:54.125000,136.71
2019-08-12 15:41:54.140625,104.69
2019-08-12 15:41:54.156250,68.56
2019-08-12 15:41:54.171875,36.06
2019-08-12 15:41:54.187500,13.58
2019-08-12 15:41:54.203125,2.76
2019-08-12 15:41:54.218750,0.07
2019-08-12 15:41:54.234375,-0.59
2019-08-12 15:41:54.250000,-3.32
2019-08-12 15:41:54.265625,-7.88
2019-08-12 15:41:54.281250,-10.17
2019-08-12 15:41:54.296875,-6.07
2019-08-12 15:41:54.312500,4.73
2019-08-12 15:41:54.328125,17.24
2019-08-12 15:41:54.343750,23.78
2019-08-12 15:41:54.359375,18.77
2019-08-12 15:41:54.375000,2.43
2019-08-12 15:41:54.390625,-18.78
2019-08-12 15:41:54.406250,-35.8
2019-08-12 15:41:54.421875,-41.84
2019-08-12 15:41:54.437500,-36.08
2019-08-12 15:41:54.453125,-23.72
2019-08-12 15:41:54.468750,-12.42
2019-08-12 15:41:54.484375,-7.64
2019-08-12 15:41:54.500000,-10.05
2019-08-12 15:41:54.515625,-15.3
2019-08-12 15:41:54.531250,-16.98
2019-08-12 15:41:54.546875,-10.87
2019-08-12 15:41:54.562500,2.47
2019-08-12 15:41:54.578125,17.74
2019-08-12 15:41:54.593750,27.21
2019-08-12 15:41:54.609375,25.2
2019-08-12 15:41:54.625000,11.24
2019-08-12 15:41:54.640625,-9.36
2019-08-12 15:41:54.656250,-27.94
2019-08-12 15:41:54.671875,-36.79
2019-08-12 15:41:54.687500,-33.29
2019-08-12 15:41:54.703125,-20.93
2019-08-12 15:41:54.718750,-7.03
2019-08-12 15:41:54.734375,1.3
2019-08-12 15:41:54.750000,1.47
2019-08-12 15:41:54.765625,-3.54
2019-08-12 15:41:54.781250,-7.31
2019-08-12 15:41:54.796875,-4.59
2019-08-12 15:41:54.812500,5.83
2019-08-12 15:41:54.828125,19.76
2019-08-12 15:41:54.843750,29.99
2019-08-12 15:41:54.859375,30.15
2019-08-12 15:41:54.875000,18.22
2019-08-12 15:41:54.890625,-2.17
2019-08-12 15:41:54.906250,-23.51
2019-08-12 15:41:54.921875,-37.97
2019-08-12 15:41:54.937500,-41.17
2019-08-12 15:41:54.953125,-34.02
2019-08-12 15:41:54.968750,-21.88
2019-08-12 15:41:54.984375,-11.36
2019-08-12 15:41:55.000000,-6.22
2019-08-12 15:41:55.015625,-5.37
2019-08-12 15:41:55.031250,-3.58
2019-08-12 15:41:55.046875,4.74
2019-08-12 15:41:55.062500,21.26
2019-08-12 15:41:55.078125,41.53
2019-08-12 15:41:55.093750,56.47
2019-08-12 15:41:55.109375,57.24
2019-08-12 15:41:55.125000,40.56
2019-08-12 15:41:55.140625,11.78
2019-08-12 15:41:55.156250,-17.29
2019-08-12 15:41:55.171875,-33.95
2019-08-12 15:41:55.187500,-31.32
2019-08-12 15:41:55.203125,-11.97
2019-08-12 15:41:55.218750,13.55
2019-08-12 15:41:55.234375,32.47
2019-08-12 15:41:55.250000,36.4
2019-08-12 15:41:55.265625,25.4
2019-08-12 15:41:55.281250,7.49
2019-08-12 15:41:55.296875,-6.68
2019-08-12 15:41:55.312500,-9.43
2019-08-12 15:41:55.328125,-0.12
2019-08-12 15:41:55.343750,15.18
2019-08-12 15:41:55.359375,27.39
2019-08-12 15:41:55.375000,29.19
2019-08-12 15:41:55.390625,18.1
2019-08-12 15:41:55.406250,-3.43
2019-08-12 15:41:55.421875,-30.51
2019-08-12 15:41:55.437500,-59.34
2019-08-12 15:41:55.453125,-89.19
2019-08-12 15:41:55.468750,-121.8
2019-08-12 15:41:55.484375,-159.37
2019-08-12 15:41:55.500000,-202.29
2019-08-12 15:41:55.515625,-247.91
2019-08-12 15:41:55.531250,-291.66
2019-08-12 15:41:55.546875,-328.35
2019-08-12 15:41:55.562500,-353.89
2019-08-12 15:41:55.578125,-366.97
2019-08-12 15:41:55.593750,-368.86
2019-08-12 15:41:55.609375,-362.26
2019-08-12 15:41:55.625000,-350.01
2019-08-12 15:41:55.640625,-333.82
2019-08-12 15:41:55.656250,-313.7
2019-08-12 15:41:55.671875,-288.4
2019-08-12 15:41:55.687500,-255.99
2019-08-12 15:41:55.703125,-215.26
2019-08-12 15:41:55.718750,-166.76
2019-08-12 15:41:55.734375,-112.56
2019-08-12 15:41:55.750000,-55.74
2019-08-12 15:41:55.765625,0.16
2019-08-12 15:41:55.781250,52.07
2019-08-12 15:41:55.796875,97.94
2019-08-12 15:41:55.812500,137.38
2019-08-12 15:41:55.828125,171.58
2019-08-12 15:41:55.843750,202.6
2019-08-12 15:41:55.859375,232.43
2019-08-12 15:41:55.875000,262.64
2019-08-12 15:41:55.890625,294.26
2019-08-12 15:41:55.906250,327.26
2019-08-12 15:41:55.921875,360.51
2019-08-12 15:41:55.937500,391.01
2019-08-12 15:41:55.953125,414.45
2019-08-12 15:41:55.968750,426.14
2019-08-12 15:41:55.984375,422.89
2019-08-12 15:41:56.000000,404.63
2019-08-12 15:41:56.015625,374.23
2019-08-12 15:41:56.031250,338.0
2019-08-12 15:41:56.046875,303.23
2019-08-12 15:41:56.062500,275.86
2019-08-12 15:41:56.078125,258.26
2019-08-12 15:41:56.093750,249.71
2019-08-12 15:41:56.109375,247.49
2019-08-12 15:41:56.125000,248.73
2019-08-12 15:41:56.140625,250.86
2019-08-12 15:41:56.156250,251.79
2019-08-12 15:41:56.171875,249.26
2019-08-12 15:41:56.187500,240.4
2019-08-12 15:41:56.203125,224.66
2019-08-12 15:41:56.218750,200.99
2019-08-12 15:41:56.234375,169.26
2019-08-12 15:41:56.250000,130.68
2019-08-12 15:41:56.265625,87.7
2019-08-12 15:41:56.281250,43.05
2019-08-12 15:41:56.296875,-0.53
2019-08-12 15:41:56.312500,-40.57
2019-08-12 15:41:56.328125,-76.25
2019-08-12 15:41:56.343750,-105.99
2019-08-12 15:41:56.359375,-128.34
2019-08-12 15:41:56.375000,-141.7
2019-08-12 15:41:56.390625,-144.64
2019-08-12 15:41:56.406250,-136.38
2019-08-12 15:41:56.421875,-117.62
2019-08-12 15:41:56.437500,-90.44
2019-08-12 15:41:56.453125,-57.83
2019-08-12 15:41:56.468750,-23.32
2019-08-12 15:41:56.484375,9.8
2019-08-12 15:41:56.500000,38.43
2019-08-12 15:41:56.515625,60.5
2019-08-12 15:41:56.531250,75.05
2019-08-12 15:41:56.546875,83.24
2019-08-12 15:41:56.562500,85.74
2019-08-12 15:41:56.578125,83.14
2019-08-12 15:41:56.593750,76.24
2019-08-12 15:41:56.609375,65.82
2019-08-12 15:41:56.625000,52.86
2019-08-12 15:41:56.640625,38.2
2019-08-12 15:41:56.656250,22.78
2019-08-12 15:41:56.671875,7.55
2019-08-12 15:41:56.687500,-6.41
2019-08-12 15:41:56.703125,-18.69
2019-08-12 15:41:56.718750,-28.98
2019-08-12 15:41:56.734375,-36.92
2019-08-12 15:41:56.750000,-42.06
2019-08-12 15:41:56.765625,-43.71
2019-08-12 15:41:56.781250,-41.02
2019-08-12 15:41:56.796875,-33.19
2019-08-12 15:41:56.812500,-19.53
2019-08-12 15:41:56.828125,1.31
2019-08-12 15:41:56.843750,29.4
2019-08-12 15:41:56.859375,64.05
2019-08-12 15:41:56.875000,103.77
2019-08-12 15:41:56.890625,146.41
2019-08-12 15:41:56.906250,189.01
2019-08-12 15:41:56.921875,228.26
2019-08-12 15:41:56.937500,260.62
2019-08-12 15:41:56.953125,282.68
2019-08-12 15:41:56.968750,291.66
2019-08-12 15:41:56.984375,285.16
2019-08-12 15:41:57.000000,262.17
2019-08-12 15:41:57.015625,223.2
2019-08-12 15:41:57.031250,170.37
2019-08-12 15:41:57.046875,106.44
2019-08-12 15:41:57.062500,34.44
2019-08-12 15:41:57.078125,-42.99
2019-08-12 15:41:57.093750,-123.85
2019-08-12 15:41:57.109375,-203.65
2019-08-12 15:41:57.125000,-278.31
2019-08-12 15:41:57.140625,-343.79
2019-08-12 15:41:57.156250,-396.53
2019-08-12 15:41:57.171875,-433.76
2019-08-12 15:41:57.187500,-454.68
2019-08-12 15:41:57.203125,-460.43
2019-08-12 15:41:57.218750,-453.9
2019-08-12 15:41:57.234375,-439.0
2019-08-12 15:41:57.250000,-419.78
2019-08-12 15:41:57.265625,-400.16
2019-08-12 15:41:57.281250,-382.57
2019-08-12 15:41:57.296875,-367.87
2019-08-12 15:41:57.312500,-355.24
2019-08-12 15:41:57.328125,-343.77
2019-08-12 15:41:57.343750,-333.14
2019-08-12 15:41:57.359375,-323.8
2019-08-12 15:41:57.375000,-316.91
2019-08-12 15:41:57.390625,-313.56
2019-08-12 15:41:57.406250,-314.68
2019-08-12 15:41:57.421875,-320.24
2019-08-12 15:41:57.437500,-332.42
2019-08-12 15:41:57.453125,-348.99
2019-08-12 15:41:57.468750,-365.75
2019-08-12 15:41:57.484375,-377.19
2019-08-12 15:41:57.500000,-377.38
2019-08-12 15:41:57.515625,-361.08
2019-08-12 15:41:57.531250,-325.33
2019-08-12 15:41:57.546875,-271.12
2019-08-12 15:41:57.562500,-203.53
2019-08-12 15:41:57.578125,-130.61
2019-08-12 15:41:57.593750,-60.52
2019-08-12 15:41:57.609375,0.22
2019-08-12 15:41:57.625000,48.77
2019-08-12 15:41:57.640625,86.11
2019-08-12 15:41:57.656250,115.71
2019-08-12 15:41:57.671875,141.09
2019-08-12 15:41:57.687500,163.93
2019-08-12 15:41:57.703125,183.6
2019-08-12 15:41:57.718750,198.1
2019-08-12 15:41:57.734375,206.28
2019-08-12 15:41:57.750000,208.43
2019-08-12 15:41:57.765625,207.1
2019-08-12 15:41:57.781250,205.41
2019-08-12 15:41:57.796875,205.58
2019-08-12 15:41:57.812500,207.58
2019-08-12 15:41:57.828125,208.96
2019-08-12 15:41:57.843750,206.22
2019-08-12 15:41:57.859375,197.02
2019-08-12 15:41:57.875000,182.04
2019-08-12 15:41:57.890625,164.83
2019-08-12 15:41:57.906250,150.22
2019-08-12 15:41:57.921875,141.73
2019-08-12 15:41:57.937500,139.74
2019-08-12 15:41:57.953125,141.31
2019-08-12 15:41:57.968750,141.65
2019-08-12 15:41:57.984375,136.79
2019-08-12 15:41:58.000000,125.61
2019-08-12 15:41:58.015625,110.44
2019-08-12 15:41:58.031250,95.58
2019-08-12 15:41:58.046875,84.65
2019-08-12 15:41:58.062500,78.7
2019-08-12 15:41:58.078125,75.66
2019-08-12 15:41:58.093750,71.66
2019-08-12 15:41:58.109375,63.68
2019-08-12 15:41:58.125000,51.43
2019-08-12 15:41:58.140625,38.0
2019-08-12 15:41:58.156250,28.14
2019-08-12 15:41:58.171875,25.55
2019-08-12 15:41:58.187500,30.62
2019-08-12 15:41:58.203125,39.85
2019-08-12 15:41:58.218750,47.57
2019-08-12 15:41:58.234375,48.95
2019-08-12 15:41:58.250000,42.58
2019-08-12 15:41:58.265625,31.22
2019-08-12 15:41:58.281250,20.39
2019-08-12 15:41:58.296875,15.06
2019-08-12 15:41:58.312500,17.16
2019-08-12 15:41:58.328125,24.37
2019-08-12 15:41:58.343750,31.43
2019-08-12 15:41:58.359375,33.19
2019-08-12 15:41:58.375000,27.41
2019-08-12 15:41:58.390625,16.11
2019-08-12 15:41:58.406250,4.45
2019-08-12 15:41:58.421875,-2.15
2019-08-12 15:41:58.437500,-1.0
2019-08-12 15:41:58.453125,6.19
2019-08-12 15:41:58.468750,14.55
2019-08-12 15:41:58.484375,18.61
2019-08-12 15:41:58.500000,15.69
2019-08-12 15:41:58.515625,7.24
2019-08-12 15:41:58.531250,-1.93
2019-08-12 15:41:58.546875,-6.85
2019-08-12 15:41:58.562500,-5.14
2019-08-12 15:41:58.578125,1.4
2019-08-12 15:41:58.593750,7.94
2019-08-12 15:41:58.609375,9.87
2019-08-12 15:41:58.625000,5.35
2019-08-12 15:41:58.640625,-3.06
2019-08-12 15:41:58.656250,-10.15
2019-08-12 15:41:58.671875,-11.16
2019-08-12 15:41:58.687500,-4.73
2019-08-12 15:41:58.703125,6.1
2019-08-12 15:41:58.718750,15.57
2019-08-12 15:41:58.734375,18.29
2019-08-12 15:41:58.750000,12.55
2019-08-12 15:41:58.765625,1.21
2019-08-12 15:41:58.781250,-9.77
2019-08-12 15:41:58.796875,-14.83
2019-08-12 15:41:58.812500,-11.67
2019-08-12 15:41:58.828125,-2.61
2019-08-12 15:41:58.843750,7.02
2019-08-12 15:41:58.859375,12.01
2019-08-12 15:41:58.875000,10.09
2019-08-12 15:41:58.890625,3.3
2019-08-12 15:41:58.906250,-3.62
2019-08-12 15:41:58.921875,-6.06
2019-08-12 15:41:58.937500,-2.28
2019-08-12 15:41:58.953125,5.45
2019-08-12 15:41:58.968750,12.36
2019-08-12 15:41:58.984375,14.15
2019-08-12 15:41:59.000000,9.59
2019-08-12 15:41:59.015625,1.25
2019-08-12 15:41:59.031250,-5.92
2019-08-12 15:41:59.046875,-7.83
2019-08-12 15:41:59.062500,-3.64
2019-08-12 15:41:59.078125,3.64
2019-08-12 15:41:59.093750,9.0
2019-08-12 15:41:59.109375,8.52
2019-08-12 15:41:59.125000,1.68
2019-08-12 15:41:59.140625,-8.14
2019-08-12 15:41:59.156250,-15.75
2019-08-12 15:41:59.171875,-17.13
2019-08-12 15:41:59.187500,-12.0
2019-08-12 15:41:59.203125,-3.88
2019-08-12 15:41:59.218750,1.92
2019-08-12 15:41:59.234375,1.52
2019-08-12 15:41:59.250000,-5.29
2019-08-12 15:41:59.265625,-14.73
2019-08-12 15:41:59.281250,-21.11
2019-08-12 15:41:59.296875,-20.11
2019-08-12 15:41:59.312500,-10.94
2019-08-12 15:41:59.328125,2.92
2019-08-12 15:41:59.343750,15.65
2019-08-12 15:41:59.359375,22.26
2019-08-12 15:41:59.375000,20.89
2019-08-12 15:41:59.390625,13.89
2019-08-12 15:41:59.406250,6.19
2019-08-12 15:41:59.421875,2.28
2019-08-12 15:41:59.437500,3.71
2019-08-12 15:41:59.453125,8.35
2019-08-12 15:41:59.468750,11.75
2019-08-12 15:41:59.484375,10.09
2019-08-12 15:41:59.500000,2.62
2019-08-12 15:41:59.515625,-7.69
2019-08-12 15:41:59.531250,-15.52
2019-08-12 15:41:59.546875,-16.49
2019-08-12 15:41:59.562500,-9.67
2019-08-12 15:41:59.578125,1.55
2019-08-12 15:41:59.593750,11.42
2019-08-12 15:41:59.609375,14.95
2019-08-12 15:41:59.625000,10.75
2019-08-12 15:41:59.640625,1.87
2019-08-12 15:41:59.656250,-6.2
2019-08-12 15:41:59.671875,-8.68
2019-08-12 15:41:59.687500,-4.35
2019-08-12 15:41:59.703125,3.88
2019-08-12 15:41:59.718750,10.53
2019-08-12 15:41:59.734375,10.96
2019-08-12 15:41:59.750000,3.94
2019-08-12 15:41:59.765625,-7.64
2019-08-12 15:41:59.781250,-18.05
2019-08-12 15:41:59.796875,-22.2
2019-08-12 15:41:59.812500,-18.05
2019-08-12 15:41:59.828125,-7.85
2019-08-12 15:41:59.843750,3.3
2019-08-12 15:41:59.859375,10.25
2019-08-12 15:41:59.875000,10.52
2019-08-12 15:41:59.890625,5.44
2019-08-12 15:41:59.906250,-0.92
2019-08-12 15:41:59.921875,-4.34
2019-08-12 15:41:59.937500,-2.93
2019-08-12 15:41:59.953125,1.82
2019-08-12 15:41:59.968750,6.28
2019-08-12 15:41:59.984375,7.13
2019-08-12 15:42:00.000000,3.48
2019-08-12 15:42:00.015625,-2.44
2019-08-12 15:42:00.031250,-6.72
2019-08-12 15:42:00.046875,-6.26
2019-08-12 15:42:00.062500,-0.67
2019-08-12 15:42:00.078125,7.34
2019-08-12 15:42:00.093750,13.47
2019-08-12 15:42:00.109375,14.38
2019-08-12 15:42:00.125000,9.4
2019-08-12 15:42:00.140625,1.09
2019-08-12 15:42:00.156250,-6.19
2019-08-12 15:42:00.171875,-8.68
2019-08-12 15:42:00.187500,-5.29
2019-08-12 15:42:00.203125,1.93
2019-08-12 15:42:00.218750,8.8
2019-08-12 15:42:00.234375,11.36
2019-08-12 15:42:00.250000,8.11
2019-08-12 15:42:00.265625,0.75
2019-08-12 15:42:00.281250,-6.62
2019-08-12 15:42:00.296875,-10.05
2019-08-12 15:42:00.312500,-8.07
2019-08-12 15:42:00.328125,-2.74
2019-08-12 15:42:00.343750,1.67
2019-08-12 15:42:00.359375,1.31
2019-08-12 15:42:00.375000,-4.85
2019-08-12 15:42:00.390625,-13.91
2019-08-12 15:42:00.406250,-20.75
2019-08-12 15:42:00.421875,-20.92
2019-08-12 15:42:00.437500,-13.42
2019-08-12 15:42:00.453125,-1.52
2019-08-12 15:42:00.468750,9.03
2019-08-12 15:42:00.484375,13.14
2019-08-12 15:42:00.500000,9.27
2019-08-12 15:42:00.515625,0.35
2019-08-12 15:42:00.531250,-7.91
2019-08-12 15:42:00.546875,-10.3
2019-08-12 15:42:00.562500,-4.92
2019-08-12 15:42:00.578125,5.73
2019-08-12 15:42:00.593750,16.25
2019-08-12 15:42:00.609375,21.53
2019-08-12 15:42:00.625000,19.42
2019-08-12 15:42:00.640625,12.02
2019-08-12 15:42:00.656250,4.03
2019-08-12 15:42:00.671875,-0.01
2019-08-12 15:42:00.687500,1.36
2019-08-12 15:42:00.703125,5.74
2019-08-12 15:42:00.718750,8.45
2019-08-12 15:42:00.734375,5.66
2019-08-12 15:42:00.750000,-3.05
2019-08-12 15:42:00.765625,-14.09
2019-08-12 15:42:00.781250,-21.68
2019-08-12 15:42:00.796875,-21.37
2019-08-12 15:42:00.812500,-12.44
2019-08-12 15:42:00.828125,1.43
2019-08-12 15:42:00.843750,14.02
2019-08-12 15:42:00.859375,20.2
2019-08-12 15:42:00.875000,18.37
2019-08-12 15:42:00.890625,11.17
2019-08-12 15:42:00.906250,3.65
2019-08-12 15:42:00.921875,0.12
2019-08-12 15:42:00.937500,1.75
2019-08-12 15:42:00.953125,6.06
2019-08-12 15:42:00.968750,8.56
2019-08-12 15:42:00.984375,5.68
2019-08-12 15:42:01.000000,-2.98
2019-08-12 15:42:01.015625,-14.07
2019-08-12 15:42:01.031250,-22.23
2019-08-12 15:42:01.046875,-23.16
2019-08-12 15:42:01.062500,-16.05
2019-08-12 15:42:01.078125,-4.35
2019-08-12 15:42:01.093750,6.13
2019-08-12 15:42:01.109375,10.38
2019-08-12 15:42:01.125000,6.81
2019-08-12 15:42:01.140625,-1.74
2019-08-12 15:42:01.156250,-9.77
2019-08-12 15:42:01.171875,-12.33
2019-08-12 15:42:01.187500,-7.92
2019-08-12 15:42:01.203125,0.72
2019-08-12 15:42:01.218750,8.24
2019-08-12 15:42:01.234375,9.95
2019-08-12 15:42:01.250000,4.57
2019-08-12 15:42:01.265625,-4.97
2019-08-12 15:42:01.281250,-13.14
2019-08-12 15:42:01.296875,-15.02
2019-08-12 15:42:01.312500,-9.16
2019-08-12 15:42:01.328125,1.78
2019-08-12 15:42:01.343750,12.35
2019-08-12 15:42:01.359375,17.45
2019-08-12 15:42:01.375000,15.11
2019-08-12 15:42:01.390625,7.44
2019-08-12 15:42:01.406250,-0.69
2019-08-12 15:42:01.421875,-4.71
2019-08-12 15:42:01.437500,-2.79
2019-08-12 15:42:01.453125,3.05
2019-08-12 15:42:01.468750,8.31
2019-08-12 15:42:01.484375,8.95
2019-08-12 15:42:01.500000,3.72
2019-08-12 15:42:01.515625,-4.78
2019-08-12 15:42:01.531250,-11.63
2019-08-12 15:42:01.546875,-12.62
2019-08-12 15:42:01.562500,-6.72
2019-08-12 15:42:01.578125,3.01
2019-08-12 15:42:01.593750,11.1
2019-08-12 15:42:01.609375,12.92
2019-08-12 15:42:01.625000,7.22
2019-08-12 15:42:01.640625,-3.1
2019-08-12 15:42:01.656250,-12.57
2019-08-12 15:42:01.671875,-16.35
2019-08-12 15:42:01.687500,-12.91
2019-08-12 15:42:01.703125,-4.7
2019-08-12 15:42:01.718750,3.35
2019-08-12 15:42:01.734375,6.82
2019-08-12 15:42:01.750000,4.13
2019-08-12 15:42:01.765625,-2.53
2019-08-12 15:42:01.781250,-8.79
2019-08-12 15:42:01.796875,-10.54
2019-08-12 15:42:01.812500,-6.58
2019-08-12 15:42:01.828125,0.74
2019-08-12 15:42:01.843750,6.83
2019-08-12 15:42:01.859375,7.53
2019-08-12 15:42:01.875000,1.68
2019-08-12 15:42:01.890625,-8.14
2019-08-12 15:42:01.906250,-16.7
2019-08-12 15:42:01.921875,-19.36
2019-08-12 15:42:01.937500,-14.47
2019-08-12 15:42:01.953125,-4.66
2019-08-12 15:42:01.968750,4.71
2019-08-12 15:42:01.984375,8.76
2019-08-12 15:42:02.000000,5.84
2019-08-12 15:42:02.015625,-1.23
2019-08-12 15:42:02.031250,-6.94
2019-08-12 15:42:02.046875,-6.46
2019-08-12 15:42:02.062500,1.36
2019-08-12 15:42:02.078125,13.1
2019-08-12 15:42:02.093750,22.67
2019-08-12 15:42:02.109375,25.01
2019-08-12 15:42:02.125000,18.99
2019-08-12 15:42:02.140625,8.16
2019-08-12 15:42:02.156250,-1.31
2019-08-12 15:42:02.171875,-4.09
2019-08-12 15:42:02.187500,1.22
2019-08-12 15:42:02.203125,11.33
2019-08-12 15:42:02.218750,20.04
2019-08-12 15:42:02.234375,21.95
2019-08-12 15:42:02.250000,15.36
2019-08-12 15:42:02.265625,3.22
2019-08-12 15:42:02.281250,-8.57
2019-08-12 15:42:02.296875,-14.38
2019-08-12 15:42:02.312500,-12.02
2019-08-12 15:42:02.328125,-3.66
2019-08-12 15:42:02.343750,5.57
2019-08-12 15:42:02.359375,10.57
2019-08-12 15:42:02.375000,9.32
2019-08-12 15:42:02.390625,3.61
2019-08-12 15:42:02.406250,-2.14
2019-08-12 15:42:02.421875,-3.75
2019-08-12 15:42:02.437500,0.28
2019-08-12 15:42:02.453125,7.58
2019-08-12 15:42:02.468750,13.56
2019-08-12 15:42:02.484375,14.0
2019-08-12 15:42:02.500000,7.76
2019-08-12 15:42:02.515625,-2.26
2019-08-12 15:42:02.531250,-10.76
2019-08-12 15:42:02.546875,-13.02
2019-08-12 15:42:02.562500,-7.49
2019-08-12 15:42:02.578125,3.08
2019-08-12 15:42:02.593750,13.06
2019-08-12 15:42:02.609375,17.39
2019-08-12 15:42:02.625000,14.16
2019-08-12 15:42:02.640625,5.65
2019-08-12 15:42:02.656250,-3.29
2019-08-12 15:42:02.671875,-8.31
2019-08-12 15:42:02.687500,-8.1
2019-08-12 15:42:02.703125,-4.93
2019-08-12 15:42:02.718750,-3.14
2019-08-12 15:42:02.734375,-5.9
2019-08-12 15:42:02.750000,-13.04
2019-08-12 15:42:02.765625,-20.9
2019-08-12 15:42:02.781250,-24.53
2019-08-12 15:42:02.796875,-20.62
2019-08-12 15:42:02.812500,-9.83
2019-08-12 15:42:02.828125,3.23
2019-08-12 15:42:02.843750,12.55
2019-08-12 15:42:02.859375,13.82
2019-08-12 15:42:02.875000,6.92
2019-08-12 15:42:02.890625,-4.05
2019-08-12 15:42:02.906250,-13.12
2019-08-12 15:42:02.921875,-15.76
2019-08-12 15:42:02.937500,-11.2
2019-08-12 15:42:02.953125,-2.77
2019-08-12 15:42:02.968750,4.33
2019-08-12 15:42:02.984375,5.99
2019-08-12 15:42:03.000000,1.63
2019-08-12 15:42:03.015625,-5.68
2019-08-12 15:42:03.031250,-11.0
2019-08-12 15:42:03.046875,-10.83
2019-08-12 15:42:03.062500,-4.94
2019-08-12 15:42:03.078125,3.21
2019-08-12 15:42:03.093750,8.36
2019-08-12 15:42:03.109375,6.51
2019-08-12 15:42:03.125000,-2.83
2019-08-12 15:42:03.140625,-16.16
2019-08-12 15:42:03.156250,-27.79
2019-08-12 15:42:03.171875,-32.77
2019-08-12 15:42:03.187500,-29.66
2019-08-12 15:42:03.203125,-20.96
2019-08-12 15:42:03.218750,-11.74
2019-08-12 15:42:03.234375,-6.54
2019-08-12 15:42:03.250000,-6.82
2019-08-12 15:42:03.265625,-10.2
2019-08-12 15:42:03.281250,-12.07
2019-08-12 15:42:03.296875,-8.54
2019-08-12 15:42:03.312500,1.32
2019-08-12 15:42:03.328125,14.57
2019-08-12 15:42:03.343750,26.21
2019-08-12 15:42:03.359375,32.13
2019-08-12 15:42:03.375000,31.26
2019-08-12 15:42:03.390625,26.29
2019-08-12 15:42:03.406250,21.76
2019-08-12 15:42:03.421875,21.43
2019-08-12 15:42:03.437500,25.87
2019-08-12 15:42:03.453125,32.18
2019-08-12 15:42:03.468750,35.58
2019-08-12 15:42:03.484375,32.33
2019-08-12 15:42:03.500000,22.15
2019-08-12 15:42:03.515625,8.48
2019-08-12 15:42:03.531250,-3.22
2019-08-12 15:42:03.546875,-8.67
2019-08-12 15:42:03.562500,-7.01
2019-08-12 15:42:03.578125,-1.32
2019-08-12 15:42:03.593750,3.16
2019-08-12 15:42:03.609375,2.17
2019-08-12 15:42:03.625000,-5.24
2019-08-12 15:42:03.640625,-16.04
2019-08-12 15:42:03.656250,-25.15
2019-08-12 15:42:03.671875,-28.3
2019-08-12 15:42:03.687500,-24.43
2019-08-12 15:42:03.703125,-16.37
2019-08-12 15:42:03.718750,-8.86
2019-08-12 15:42:03.734375,-5.77
2019-08-12 15:42:03.750000,-7.82
2019-08-12 15:42:03.765625,-12.02
2019-08-12 15:42:03.781250,-13.63
2019-08-12 15:42:03.796875,-9.08
2019-08-12 15:42:03.812500,1.79
2019-08-12 15:42:03.828125,15.47
2019-08-12 15:42:03.843750,26.51
2019-08-12 15:42:03.859375,30.68
2019-08-12 15:42:03.875000,27.12
2019-08-12 15:42:03.890625,19.05
2019-08-12 15:42:03.906250,11.7
2019-08-12 15:42:03.921875,9.34
2019-08-12 15:42:03.937500,12.8
2019-08-12 15:42:03.953125,19.05
2019-08-12 15:42:03.968750,23.1
2019-08-12 15:42:03.984375,20.88
2019-08-12 15:42:04.000000,11.82
2019-08-12 15:42:04.015625,-0.82
2019-08-12 15:42:04.031250,-11.73
2019-08-12 15:42:04.046875,-16.66
2019-08-12 15:42:04.062500,-14.66
2019-08-12 15:42:04.078125,-8.48
2019-08-12 15:42:04.093750,-2.85
2019-08-12 15:42:04.109375,-1.65
2019-08-12 15:42:04.125000,-5.75
2019-08-12 15:42:04.140625,-12.61
2019-08-12 15:42:04.156250,-17.92
2019-08-12 15:42:04.171875,-18.34
2019-08-12 15:42:04.187500,-13.23
2019-08-12 15:42:04.203125,-5.19
2019-08-12 15:42:04.218750,1.63
2019-08-12 15:42:04.234375,3.98
2019-08-12 15:42:04.250000,1.35
2019-08-12 15:42:04.265625,-3.55
2019-08-12 15:42:04.281250,-6.52
2019-08-12 15:42:04.296875,-4.21
2019-08-12 15:42:04.312500,3.74
2019-08-12 15:42:04.328125,14.13
2019-08-12 15:42:04.343750,21.83
2019-08-12 15:42:04.359375,22.52
2019-08-12 15:42:04.375000,15.34
2019-08-12 15:42:04.390625,3.53
2019-08-12 15:42:04.406250,-6.95
2019-08-12 15:42:04.421875,-10.85
2019-08-12 15:42:04.437500,-6.43
2019-08-12 15:42:04.453125,3.32
2019-08-12 15:42:04.468750,12.33
2019-08-12 15:42:04.484375,14.75
2019-08-12 15:42:04.500000,8.13
2019-08-12 15:42:04.515625,-5.12
2019-08-12 15:42:04.531250,-19.28
2019-08-12 15:42:04.546875,-28.51
2019-08-12 15:42:04.562500,-30.03
2019-08-12 15:42:04.578125,-25.37
2019-08-12 15:42:04.593750,-19.06
2019-08-12 15:42:04.609375,-15.64
2019-08-12 15:42:04.625000,-16.83
2019-08-12 15:42:04.640625,-20.58
2019-08-12 15:42:04.656250,-22.5
2019-08-12 15:42:04.671875,-18.91
2019-08-12 15:42:04.687500,-9.35
2019-08-12 15:42:04.703125,2.83
2019-08-12 15:42:04.718750,12.32
2019-08-12 15:42:04.734375,15.03
2019-08-12 15:42:04.750000,10.57
2019-08-12 15:42:04.765625,2.71
2019-08-12 15:42:04.781250,-2.89
2019-08-12 15:42:04.796875,-1.95
2019-08-12 15:42:04.812500,5.83
2019-08-12 15:42:04.828125,16.42
2019-08-12 15:42:04.843750,23.69
2019-08-12 15:42:04.859375,22.7
2019-08-12 15:42:04.875000,12.75
2019-08-12 15:42:04.890625,-2.38
2019-08-12 15:42:04.906250,-16.18
2019-08-12 15:42:04.921875,-23.17
2019-08-12 15:42:04.937500,-21.61
2019-08-12 15:42:04.953125,-14.23
2019-08-12 15:42:04.968750,-6.46
2019-08-12 15:42:04.984375,-3.15
2019-08-12 15:42:05.000000,-5.78
2019-08-12 15:42:05.015625,-11.68
2019-08-12 15:42:05.031250,-15.77
2019-08-12 15:42:05.046875,-13.68
2019-08-12 15:42:05.062500,-4.39
2019-08-12 15:42:05.078125,8.9
2019-08-12 15:42:05.093750,20.6
2019-08-12 15:42:05.109375,25.65
2019-08-12 15:42:05.125000,22.36
2019-08-12 15:42:05.140625,13.32
2019-08-12 15:42:05.156250,3.86
2019-08-12 15:42:05.171875,-0.98
2019-08-12 15:42:05.187500,1.0
2019-08-12 15:42:05.203125,7.93
2019-08-12 15:42:05.218750,15.2
2019-08-12 15:42:05.234375,18.2
2019-08-12 15:42:05.250000,14.77
2019-08-12 15:42:05.265625,6.61
2019-08-12 15:42:05.281250,-1.9
2019-08-12 15:42:05.296875,-6.23
2019-08-12 15:42:05.312500,-4.42
2019-08-12 15:42:05.328125,1.88
2019-08-12 15:42:05.343750,8.41
2019-08-12 15:42:05.359375,10.89
2019-08-12 15:42:05.375000,7.83
2019-08-12 15:42:05.390625,1.24
2019-08-12 15:42:05.406250,-4.29
2019-08-12 15:42:05.421875,-4.62
2019-08-12 15:42:05.437500,1.36
2019-08-12 15:42:05.453125,10.88
2019-08-12 15:42:05.468750,18.84
2019-08-12 15:42:05.484375,20.52
2019-08-12 15:42:05.500000,14.39
2019-08-12 15:42:05.515625,3.1
2019-08-12 15:42:05.531250,-8.07
2019-08-12 15:42:05.546875,-14.16
2019-08-12 15:42:05.562500,-13.14
2019-08-12 15:42:05.578125,-7.24
2019-08-12 15:42:05.593750,-1.41
2019-08-12 15:42:05.609375,-0.58
2019-08-12 15:42:05.625000,-6.81
2019-08-12 15:42:05.640625,-17.89
2019-08-12 15:42:05.656250,-28.6
2019-08-12 15:42:05.671875,-33.68
2019-08-12 15:42:05.687500,-30.91
2019-08-12 15:42:05.703125,-22.48
2019-08-12 15:42:05.718750,-13.71
2019-08-12 15:42:05.734375,-9.7
2019-08-12 15:42:05.750000,-12.21
2019-08-12 15:42:05.765625,-18.43
2019-08-12 15:42:05.781250,-22.59
2019-08-12 15:42:05.796875,-19.67
2019-08-12 15:42:05.812500,-8.77
2019-08-12 15:42:05.828125,6.06
2019-08-12 15:42:05.843750,18.02
2019-08-12 15:42:05.859375,21.45
2019-08-12 15:42:05.875000,15.32
2019-08-12 15:42:05.890625,3.86
2019-08-12 15:42:05.906250,-5.93
2019-08-12 15:42:05.921875,-8.29
2019-08-12 15:42:05.937500,-1.94
2019-08-12 15:42:05.953125,9.27
2019-08-12 15:42:05.968750,18.93
2019-08-12 15:42:05.984375,21.82
2019-08-12 15:42:06.000000,16.87
2019-08-12 15:42:06.015625,7.68
2019-08-12 15:42:06.031250,0.3
2019-08-12 15:42:06.046875,-0.57
2019-08-12 15:42:06.062500,6.09
2019-08-12 15:42:06.078125,16.88
2019-08-12 15:42:06.093750,26.25
2019-08-12 15:42:06.109375,29.7
2019-08-12 15:42:06.125000,26.33
2019-08-12 15:42:06.140625,19.14
2019-08-12 15:42:06.156250,13.22
2019-08-12 15:42:06.171875,12.49
2019-08-12 15:42:06.187500,17.55
2019-08-12 15:42:06.203125,25.2
2019-08-12 15:42:06.218750,30.28
2019-08-12 15:42:06.234375,28.49
2019-08-12 15:42:06.250000,18.82
2019-08-12 15:42:06.265625,4.26
2019-08-12 15:42:06.281250,-9.86
2019-08-12 15:42:06.296875,-18.63
2019-08-12 15:42:06.312500,-20.12
2019-08-12 15:42:06.328125,-16.26
2019-08-12 15:42:06.343750,-11.49
2019-08-12 15:42:06.359375,-10.11
2019-08-12 15:42:06.375000,-13.77
2019-08-12 15:42:06.390625,-20.41
2019-08-12 15:42:06.406250,-25.65
2019-08-12 15:42:06.421875,-25.57
2019-08-12 15:42:06.437500,-19.07
2019-08-12 15:42:06.453125,-8.71
2019-08-12 15:42:06.468750,0.63
2019-08-12 15:42:06.484375,4.55
2019-08-12 15:42:06.500000,1.64
2019-08-12 15:42:06.515625,-5.52
2019-08-12 15:42:06.531250,-11.92
2019-08-12 15:42:06.546875,-13.06
2019-08-12 15:42:06.562500,-7.52
2019-08-12 15:42:06.578125,1.99
2019-08-12 15:42:06.593750,10.22
2019-08-12 15:42:06.609375,12.19
2019-08-12 15:42:06.625000,6.26
2019-08-12 15:42:06.640625,-4.92
2019-08-12 15:42:06.656250,-15.63
2019-08-12 15:42:06.671875,-20.54
2019-08-12 15:42:06.687500,-17.52
2019-08-12 15:42:06.703125,-9.08
2019-08-12 15:42:06.718750,-0.75
2019-08-12 15:42:06.734375,2.21
2019-08-12 15:42:06.750000,-2.12
2019-08-12 15:42:06.765625,-11.02
2019-08-12 15:42:06.781250,-18.89
2019-08-12 15:42:06.796875,-20.56
2019-08-12 15:42:06.812500,-14.4
2019-08-12 15:42:06.828125,-3.34
2019-08-12 15:42:06.843750,7.03
2019-08-12 15:42:06.859375,11.76
2019-08-12 15:42:06.875000,9.64
2019-08-12 15:42:06.890625,3.74
2019-08-12 15:42:06.906250,-0.45
2019-08-12 15:42:06.921875,1.41
2019-08-12 15:42:06.937500,9.88
2019-08-12 15:42:06.953125,21.36
2019-08-12 15:42:06.968750,30.17
2019-08-12 15:42:06.984375,32.09
2019-08-12 15:42:07.000000,26.7
2019-08-12 15:42:07.015625,17.84
2019-08-12 15:42:07.031250,11.07
2019-08-12 15:42:07.046875,10.28
2019-08-12 15:42:07.062500,15.43
2019-08-12 15:42:07.078125,22.52
2019-08-12 15:42:07.093750,25.91
2019-08-12 15:42:07.109375,21.58
2019-08-12 15:42:07.125000,9.52
2019-08-12 15:42:07.140625,-6.24
2019-08-12 15:42:07.156250,-19.61
2019-08-12 15:42:07.171875,-25.73
2019-08-12 15:42:07.187500,-23.36
2019-08-12 15:42:07.203125,-15.43
2019-08-12 15:42:07.218750,-7.19
2019-08-12 15:42:07.234375,-3.19
2019-08-12 15:42:07.250000,-4.93
2019-08-12 15:42:07.265625,-9.95
2019-08-12 15:42:07.281250,-13.62
2019-08-12 15:42:07.296875,-11.83
2019-08-12 15:42:07.312500,-3.65
2019-08-12 15:42:07.328125,7.82
2019-08-12 15:42:07.343750,17.14
2019-08-12 15:42:07.359375,19.47
2019-08-12 15:42:07.375000,13.6
2019-08-12 15:42:07.390625,2.74
2019-08-12 15:42:07.406250,-7.03
2019-08-12 15:42:07.421875,-10.31
2019-08-12 15:42:07.437500,-5.53
2019-08-12 15:42:07.453125,4.1
2019-08-12 15:42:07.468750,12.47
2019-08-12 15:42:07.484375,14.23
2019-08-12 15:42:07.500000,7.87
2019-08-12 15:42:07.515625,-3.5
2019-08-12 15:42:07.531250,-13.92
2019-08-12 15:42:07.546875,-18.26
2019-08-12 15:42:07.562500,-15.13
2019-08-12 15:42:07.578125,-7.62
2019-08-12 15:42:07.593750,-1.18
2019-08-12 15:42:07.609375,-0.15
2019-08-12 15:42:07.625000,-5.03
2019-08-12 15:42:07.640625,-12.34
2019-08-12 15:42:07.656250,-16.77
2019-08-12 15:42:07.671875,-14.61
2019-08-12 15:42:07.687500,-6.12
2019-08-12 15:42:07.703125,4.59
2019-08-12 15:42:07.718750,12.02
2019-08-12 15:42:07.734375,12.59
2019-08-12 15:42:07.750000,6.54
2019-08-12 15:42:07.765625,-2.09
2019-08-12 15:42:07.781250,-8.04
2019-08-12 15:42:07.796875,-7.86
2019-08-12 15:42:07.812500,-1.87
2019-08-12 15:42:07.828125,5.96
2019-08-12 15:42:07.843750,10.29
2019-08-12 15:42:07.859375,7.35
2019-08-12 15:42:07.875000,-2.69
2019-08-12 15:42:07.890625,-15.89
2019-08-12 15:42:07.906250,-26.48
2019-08-12 15:42:07.921875,-29.83
2019-08-12 15:42:07.937500,-24.89
2019-08-12 15:42:07.953125,-14.61
2019-08-12 15:42:07.968750,-4.34
2019-08-12 15:42:07.984375,1.17
2019-08-12 15:42:08.000000,0.47
2019-08-12 15:42:08.015625,-3.99
2019-08-12 15:42:08.031250,-7.25
2019-08-12 15:42:08.046875,-5.1
2019-08-12 15:42:08.062500,3.61
2019-08-12 15:42:08.078125,15.84
2019-08-12 15:42:08.093750,26.08
2019-08-12 15:42:08.109375,29.61
2019-08-12 15:42:08.125000,25.17
2019-08-12 15:42:08.140625,15.7
2019-08-12 15:42:08.156250,6.72
2019-08-12 15:42:08.171875,3.21
2019-08-12 15:42:08.187500,6.56
2019-08-12 15:42:08.203125,14.01
2019-08-12 15:42:08.218750,20.24
2019-08-12 15:42:08.234375,20.67
2019-08-12 15:42:08.250000,14.02
2019-08-12 15:42:08.265625,3.1
2019-08-12 15:42:08.281250,-6.9
2019-08-12 15:42:08.296875,-11.52
2019-08-12 15:42:08.312500,-9.4
2019-08-12 15:42:08.328125,-3.08
2019-08-12 15:42:08.343750,2.65
2019-08-12 15:42:08.359375,3.5
2019-08-12 15:42:08.375000,-1.76
2019-08-12 15:42:08.390625,-10.56
2019-08-12 15:42:08.406250,-17.9
2019-08-12 15:42:08.421875,-19.19
2019-08-12 15:42:08.437500,-12.81
2019-08-12 15:42:08.453125,-1.02
2019-08-12 15:42:08.468750,11.03
2019-08-12 15:42:08.484375,18.14
2019-08-12 15:42:08.500000,17.75
2019-08-12 15:42:08.515625,11.31
2019-08-12 15:42:08.531250,3.24
2019-08-12 15:42:08.546875,-1.8
2019-08-12 15:42:08.562500,-1.53
2019-08-12 15:42:08.578125,2.56
2019-08-12 15:42:08.593750,6.1
2019-08-12 15:42:08.609375,4.79
2019-08-12 15:42:08.625000,-2.7
2019-08-12 15:42:08.640625,-13.71
2019-08-12 15:42:08.656250,-22.91
2019-08-12 15:42:08.671875,-25.3
2019-08-12 15:42:08.687500,-19.18
2019-08-12 15:42:08.703125,-7.36
2019-08-12 15:42:08.718750,4.4
2019-08-12 15:42:08.734375,10.44
2019-08-12 15:42:08.750000,8.25
2019-08-12 15:42:08.765625,-0.09
2019-08-12 15:42:08.781250,-9.28
2019-08-12 15:42:08.796875,-13.95
2019-08-12 15:42:08.812500,-11.56
2019-08-12 15:42:08.828125,-3.85
2019-08-12 15:42:08.843750,4.44
2019-08-12 15:42:08.859375,8.57
2019-08-12 15:42:08.875000,6.63
2019-08-12 15:42:08.890625,0.77
2019-08-12 15:42:08.906250,-4.28
2019-08-12 15:42:08.921875,-4.29
2019-08-12 15:42:08.937500,1.55
2019-08-12 15:42:08.953125,10.01
2019-08-12 15:42:08.968750,15.48
2019-08-12 15:42:08.984375,13.56
2019-08-12 15:42:09.000000,3.94
2019-08-12 15:42:09.015625,-9.05
2019-08-12 15:42:09.031250,-18.69
2019-08-12 15:42:09.046875,-19.87
2019-08-12 15:42:09.062500,-11.8
2019-08-12 15:42:09.078125,1.34
2019-08-12 15:42:09.093750,12.98
2019-08-12 15:42:09.109375,17.88
2019-08-12 15:42:09.125000,14.94
2019-08-12 15:42:09.140625,7.46
2019-08-12 15:42:09.156250,0.93
2019-08-12 15:42:09.171875,-0.62
2019-08-12 15:42:09.187500,3.17
2019-08-12 15:42:09.203125,8.85
2019-08-12 15:42:09.218750,11.53
2019-08-12 15:42:09.234375,7.92
2019-08-12 15:42:09.250000,-1.68
2019-08-12 15:42:09.265625,-13.36
2019-08-12 15:42:09.281250,-21.78
2019-08-12 15:42:09.296875,-23.01
2019-08-12 15:42:09.312500,-16.64
2019-08-12 15:42:09.328125,-5.83
2019-08-12 15:42:09.343750,4.33
2019-08-12 15:42:09.359375,9.47
2019-08-12 15:42:09.375000,8.1
2019-08-12 15:42:09.390625,2.08
2019-08-12 15:42:09.406250,-4.5
2019-08-12 15:42:09.421875,-7.81
2019-08-12 15:42:09.437500,-6.36
2019-08-12 15:42:09.453125,-1.74
2019-08-12 15:42:09.468750,2.46
2019-08-12 15:42:09.484375,2.92
2019-08-12 15:42:09.500000,-1.25
2019-08-12 15:42:09.515625,-7.79
2019-08-12 15:42:09.531250,-12.48
2019-08-12 15:42:09.546875,-11.78
2019-08-12 15:42:09.562500,-4.92
2019-08-12 15:42:09.578125,5.36
2019-08-12 15:42:09.593750,14.22
2019-08-12 15:42:09.609375,17.41
2019-08-12 15:42:09.625000,13.58
2019-08-12 15:42:09.640625,4.86
2019-08-12 15:42:09.656250,-4.17
2019-08-12 15:42:09.671875,-9.19
2019-08-12 15:42:09.687500,-8.35
2019-08-12 15:42:09.703125,-2.93
2019-08-12 15:42:09.718750,3.68
2019-08-12 15:42:09.734375,8.08
2019-08-12 15:42:09.750000,8.83
2019-08-12 15:42:09.765625,7.11
2019-08-12 15:42:09.781250,5.73
2019-08-12 15:42:09.796875,7.24
2019-08-12 15:42:09.812500,12.05
2019-08-12 15:42:09.828125,17.86
2019-08-12 15:42:09.843750,20.77
2019-08-12 15:42:09.859375,17.49
2019-08-12 15:42:09.875000,7.65
2019-08-12 15:42:09.890625,-5.6
2019-08-12 15:42:09.906250,-16.61
2019-08-12 15:42:09.921875,-20.12
2019-08-12 15:42:09.937500,-13.88
2019-08-12 15:42:09.953125,-0.36
2019-08-12 15:42:09.968750,14.32
2019-08-12 15:42:09.984375,23.38
2019-08-12 15:42:10.000000,22.62
2019-08-12 15:42:10.015625,12.79
2019-08-12 15:42:10.031250,-1.05
2019-08-12 15:42:10.046875,-12.42
2019-08-12 15:42:10.062500,-16.86
2019-08-12 15:42:10.078125,-14.18
2019-08-12 15:42:10.093750,-8.2
2019-08-12 15:42:10.109375,-4.05
2019-08-12 15:42:10.125000,-4.77
2019-08-12 15:42:10.140625,-9.53
2019-08-12 15:42:10.156250,-14.18
2019-08-12 15:42:10.171875,-14.27
2019-08-12 15:42:10.187500,-8.19
2019-08-12 15:42:10.203125,1.44
2019-08-12 15:42:10.218750,9.17
2019-08-12 15:42:10.234375,9.95
2019-08-12 15:42:10.250000,2.46
2019-08-12 15:42:10.265625,-9.85
2019-08-12 15:42:10.281250,-20.56
2019-08-12 15:42:10.296875,-23.84
2019-08-12 15:42:10.312500,-17.75
2019-08-12 15:42:10.328125,-5.26
2019-08-12 15:42:10.343750,7.56
2019-08-12 15:42:10.359375,14.92
2019-08-12 15:42:10.375000,14.31
2019-08-12 15:42:10.390625,7.58
2019-08-12 15:42:10.406250,-0.7
2019-08-12 15:42:10.421875,-6.2
2019-08-12 15:42:10.437500,-7.18
2019-08-12 15:42:10.453125,-5.2
2019-08-12 15:42:10.468750,-3.61
2019-08-12 15:42:10.484375,-4.88
2019-08-12 15:42:10.500000,-8.81
2019-08-12 15:42:10.515625,-12.49
2019-08-12 15:42:10.531250,-12.12
2019-08-12 15:42:10.546875,-5.65
2019-08-12 15:42:10.562500,5.61
2019-08-12 15:42:10.578125,17.1
2019-08-12 15:42:10.593750,23.4
2019-08-12 15:42:10.609375,20.93
2019-08-12 15:42:10.625000,10.39
2019-08-12 15:42:10.640625,-3.43
2019-08-12 15:42:10.656250,-13.72
2019-08-12 15:42:10.671875,-15.29
2019-08-12 15:42:10.687500,-7.15
2019-08-12 15:42:10.703125,6.97
2019-08-12 15:42:10.718750,20.43
2019-08-12 15:42:10.734375,27.24
2019-08-12 15:42:10.750000,24.92
2019-08-12 15:42:10.765625,15.68
2019-08-12 15:42:10.781250,4.9
2019-08-12 15:42:10.796875,-1.99
2019-08-12 15:42:10.812500,-2.51
2019-08-12 15:42:10.828125,1.61
2019-08-12 15:42:10.843750,5.98
2019-08-12 15:42:10.859375,6.3
2019-08-12 15:42:10.875000,1.18
2019-08-12 15:42:10.890625,-6.85
2019-08-12 15:42:10.906250,-13.08
2019-08-12 15:42:10.921875,-13.5
2019-08-12 15:42:10.937500,-7.46
2019-08-12 15:42:10.953125,1.78
2019-08-12 15:42:10.968750,8.81
2019-08-12 15:42:10.984375,9.23
2019-08-12 15:42:11.000000,2.35
2019-08-12 15:42:11.015625,-8.22
2019-08-12 15:42:11.031250,-16.71
2019-08-12 15:42:11.046875,-18.36
2019-08-12 15:42:11.062500,-12.26
2019-08-12 15:42:11.078125,-1.84
2019-08-12 15:42:11.093750,7.31
2019-08-12 15:42:11.109375,10.43
2019-08-12 15:42:11.125000,6.63
2019-08-12 15:42:11.140625,-1.04
2019-08-12 15:42:11.156250,-7.27
2019-08-12 15:42:11.171875,-7.97
2019-08-12 15:42:11.187500,-2.46
2019-08-12 15:42:11.203125,5.98
2019-08-12 15:42:11.218750,12.07
2019-08-12 15:42:11.234375,11.61
2019-08-12 15:42:11.250000,3.71
2019-08-12 15:42:11.265625,-8.28
2019-08-12 15:42:11.281250,-18.81
2019-08-12 15:42:11.296875,-22.85
2019-08-12 15:42:11.312500,-18.47
2019-08-12 15:42:11.328125,-7.87
2019-08-12 15:42:11.343750,4.01
2019-08-12 15:42:11.359375,12.08
2019-08-12 15:42:11.375000,13.63
2019-08-12 15:42:11.390625,9.53
2019-08-12 15:42:11.406250,3.29
2019-08-12 15:42:11.421875,-1.39
2019-08-12 15:42:11.437500,-2.85
2019-08-12 15:42:11.453125,-2.3
2019-08-12 15:42:11.468750,-2.84
2019-08-12 15:42:11.484375,-6.96
2019-08-12 15:42:11.500000,-14.55
