2019-08-01 10:17:42.000000,-0.0
2019-08-01 10:17:42.015625,-0.0
2019-08-01 10:17:42.031250,-0.0
2019-08-01 10:17:42.046875,-0.0
2019-08-01 10:17:42.062500,-0.0
2019-08-01 10:17:42.078125,-0.0
2019-08-01 10:17:42.093750,-0.0
2019-08-01 10:17:42.109375,-0.0
2019-08-01 10:17:42.125000,-0.0
2019-08-01 10:17:42.140625,-0.0
2019-08-01 10:17:42.156250,0.0
2019-08-01 10:17:42.171875,0.01
2019-08-01 10:17:42.187500,0.01
2019-08-01 10:17:42.203125,-0.0
2019-08-01 10:17:42.218750,-0.03
2019-08-01 10:17:42.234375,-0.05
2019-08-01 10:17:42.250000,-0.05
2019-08-01 10:17:42.265625,0.0
2019-08-01 10:17:42.281250,0.13
2019-08-01 10:17:42.296875,0.36
2019-08-01 10:17:42.312500,0.66
2019-08-01 10:17:42.328125,1.01
2019-08-01 10:17:42.343750,1.37
2019-08-01 10:17:42.359375,1.72
2019-08-01 10:17:42.375000,2.06
2019-08-01 10:17:42.390625,2.4
2019-08-01 10:17:42.406250,2.79
2019-08-01 10:17:42.421875,3.24
2019-08-01 10:17:42.437500,3.8
2019-08-01 10:17:42.453125,4.43
2019-08-01 10:17:42.468750,5.07
2019-08-01 10:17:42.484375,5.69
2019-08-01 10:17:42.500000,6.26
2019-08-01 10:17:42.515625,6.79
2019-08-01 10:17:42.531250,7.34
2019-08-01 10:17:42.546875,7.99
2019-08-01 10:17:42.562500,8.79
2019-08-01 10:17:42.578125,9.84
2019-08-01 10:17:42.593750,11.05
2019-08-01 10:17:42.609375,12.33
2019-08-01 10:17:42.625000,13.54
2019-08-01 10:17:42.640625,14.64
2019-08-01 10:17:42.656250,15.68
2019-08-01 10:17:42.671875,16.82
2019-08-01 10:17:42.687500,18.26
2019-08-01 10:17:42.703125,20.16
2019-08-01 10:17:42.718750,22.74
2019-08-01 10:17:42.734375,25.81
2019-08-01 10:17:42.750000,29.09
2019-08-01 10:17:42.765625,32.3
2019-08-01 10:17:42.781250,35.27
2019-08-01 10:17:42.796875,38.08
2019-08-01 10:17:42.812500,41.07
2019-08-01 10:17:42.828125,44.67
2019-08-01 10:17:42.843750,49.21
2019-08-01 10:17:42.859375,55.08
2019-08-01 10:17:42.875000,61.92
2019-08-01 10:17:42.890625,69.23
2019-08-01 10:17:42.906250,76.43
2019-08-01 10:17:42.921875,83.18
2019-08-01 10:17:42.937500,89.58
2019-08-01 10:17:42.953125,96.13
2019-08-01 10:17:42.968750,103.56
2019-08-01 10:17:42.984375,112.41
2019-08-01 10:17:43.000000,123.25
2019-08-01 10:17:43.015625,135.56
2019-08-01 10:17:43.031250,148.55
2019-08-01 10:17:43.046875,161.35
2019-08-01 10:17:43.062500,173.41
2019-08-01 10:17:43.078125,184.8
2019-08-01 10:17:43.093750,196.19
2019-08-01 10:17:43.109375,208.92
2019-08-01 10:17:43.125000,221.75
2019-08-01 10:17:43.140625,236.96
2019-08-01 10:17:43.156250,255.16
2019-08-01 10:17:43.171875,276.43
2019-08-01 10:17:43.187500,299.59
2019-08-01 10:17:43.203125,321.74
2019-08-01 10:17:43.218750,338.58
2019-08-01 10:17:43.234375,345.53
2019-08-01 10:17:43.250000,339.24
2019-08-01 10:17:43.265625,318.91
2019-08-01 10:17:43.281250,286.95
2019-08-01 10:17:43.296875,247.23
2019-08-01 10:17:43.312500,204.01
2019-08-01 10:17:43.328125,160.48
2019-08-01 10:17:43.343750,118.12
2019-08-01 10:17:43.359375,77.15
2019-08-01 10:17:43.375000,37.39
2019-08-01 10:17:43.390625,-0.88
2019-08-01 10:17:43.406250,-36.84
2019-08-01 10:17:43.421875,-69.14
2019-08-01 10:17:43.437500,-97.14
2019-08-01 10:17:43.453125,-120.93
2019-08-01 10:17:43.468750,-141.09
2019-08-01 10:17:43.484375,-158.19
2019-08-01 10:17:43.500000,-172.42
2019-08-01 10:17:43.515625,-183.58
2019-08-01 10:17:43.531250,-191.12
2019-08-01 10:17:43.546875,-194.7
2019-08-01 10:17:43.562500,-194.19
2019-08-01 10:17:43.578125,-190.38
2019-08-01 10:17:43.593750,-184.46
2019-08-01 10:17:43.609375,-177.77
2019-08-01 10:17:43.625000,-171.45
2019-08-01 10:17:43.640625,-165.77
2019-08-01 10:17:43.656250,-160.53
2019-08-01 10:17:43.671875,-155.11
2019-08-01 10:17:43.687500,-148.91
2019-08-01 10:17:43.703125,-141.5
2019-08-01 10:17:43.718750,-133.06
2019-08-01 10:17:43.734375,-124.23
2019-08-01 10:17:43.750000,-115.95
2019-08-01 10:17:43.765625,-109.11
2019-08-01 10:17:43.781250,-104.32
2019-08-01 10:17:43.796875,-101.69
2019-08-01 10:17:43.812500,-100.79
2019-08-01 10:17:43.828125,-100.88
2019-08-01 10:17:43.843750,-101.24
2019-08-01 10:17:43.859375,-101.62
2019-08-01 10:17:43.875000,-102.26
2019-08-01 10:17:43.890625,-103.93
2019-08-01 10:17:43.906250,-107.55
2019-08-01 10:17:43.921875,-113.85
2019-08-01 10:17:43.937500,-122.83
2019-08-01 10:17:43.953125,-133.62
2019-08-01 10:17:43.968750,-144.73
2019-08-01 10:17:43.984375,-154.57
2019-08-01 10:17:44.000000,-162.08
2019-08-01 10:17:44.015625,-166.91
2019-08-01 10:17:44.031250,-169.7
2019-08-01 10:17:44.046875,-171.56
2019-08-01 10:17:44.062500,-173.64
2019-08-01 10:17:44.078125,-176.27
2019-08-01 10:17:44.093750,-178.81
2019-08-01 10:17:44.109375,-180.06
2019-08-01 10:17:44.125000,-178.83
2019-08-01 10:17:44.140625,-174.78
2019-08-01 10:17:44.156250,-168.6
2019-08-01 10:17:44.171875,-162.22
2019-08-01 10:17:44.187500,-158.48
2019-08-01 10:17:44.203125,-160.92
2019-08-01 10:17:44.218750,-173.34
2019-08-01 10:17:44.234375,-199.02
2019-08-01 10:17:44.250000,-239.81
2019-08-01 10:17:44.265625,-294.5
2019-08-01 10:17:44.281250,-358.16
2019-08-01 10:17:44.296875,-422.3
2019-08-01 10:17:44.312500,-477.61
2019-08-01 10:17:44.328125,-515.55
2019-08-01 10:17:44.343750,-532.75
2019-08-01 10:17:44.359375,-531.29
2019-08-01 10:17:44.375000,-517.04
2019-08-01 10:17:44.390625,-496.5
2019-08-01 10:17:44.406250,-473.9
2019-08-01 10:17:44.421875,-452.15
2019-08-01 10:17:44.437500,-430.65
2019-08-01 10:17:44.453125,-407.82
2019-08-01 10:17:44.468750,-382.82
2019-08-01 10:17:44.484375,-356.09
2019-08-01 10:17:44.500000,-328.48
2019-08-01 10:17:44.515625,-299.67
2019-08-01 10:17:44.531250,-268.79
2019-08-01 10:17:44.546875,-234.79
2019-08-01 10:17:44.562500,-197.37
2019-08-01 10:17:44.578125,-157.16
2019-08-01 10:17:44.593750,-115.96
2019-08-01 10:17:44.609375,-76.12
2019-08-01 10:17:44.625000,-39.56
2019-08-01 10:17:44.640625,-6.9
2019-08-01 10:17:44.656250,22.64
2019-08-01 10:17:44.671875,50.6
2019-08-01 10:17:44.687500,78.57
2019-08-01 10:17:44.703125,107.47
2019-08-01 10:17:44.718750,137.49
2019-08-01 10:17:44.734375,167.83
2019-08-01 10:17:44.750000,197.24
2019-08-01 10:17:44.765625,224.53
2019-08-01 10:17:44.781250,249.13
2019-08-01 10:17:44.796875,271.27
2019-08-01 10:17:44.812500,292.05
2019-08-01 10:17:44.828125,313.33
2019-08-01 10:17:44.843750,337.2
2019-08-01 10:17:44.859375,365.11
2019-08-01 10:17:44.875000,396.67
2019-08-01 10:17:44.890625,428.98
2019-08-01 10:17:44.906250,457.21
2019-08-01 10:17:44.921875,476.28
2019-08-01 10:17:44.937500,482.88
2019-08-01 10:17:44.953125,476.74
2019-08-01 10:17:44.968750,460.39
2019-08-01 10:17:44.984375,437.56
2019-08-01 10:17:45.000000,411.2
2019-08-01 10:17:45.015625,382.37
2019-08-01 10:17:45.031250,350.77
2019-08-01 10:17:45.046875,316.32
2019-08-01 10:17:45.062500,280.47
2019-08-01 10:17:45.078125,246.28
2019-08-01 10:17:45.093750,216.95
2019-08-01 10:17:45.109375,193.94
2019-08-01 10:17:45.125000,176.09
2019-08-01 10:17:45.140625,160.36
2019-08-01 10:17:45.156250,143.78
2019-08-01 10:17:45.171875,125.35
2019-08-01 10:17:45.187500,106.56
2019-08-01 10:17:45.203125,90.2
2019-08-01 10:17:45.218750,78.58
2019-08-01 10:17:45.234375,71.97
2019-08-01 10:17:45.250000,68.58
2019-08-01 10:17:45.265625,65.85
2019-08-01 10:17:45.281250,62.03
2019-08-01 10:17:45.296875,57.03
2019-08-01 10:17:45.312500,52.1
2019-08-01 10:17:45.328125,48.51
2019-08-01 10:17:45.343750,46.24
2019-08-01 10:17:45.359375,43.51
2019-08-01 10:17:45.375000,37.61
2019-08-01 10:17:45.390625,26.45
2019-08-01 10:17:45.406250,10.23
2019-08-01 10:17:45.421875,-8.05
2019-08-01 10:17:45.437500,-23.65
2019-08-01 10:17:45.453125,-32.4
2019-08-01 10:17:45.468750,-32.86
2019-08-01 10:17:45.484375,-27.37
2019-08-01 10:17:45.500000,-21.05
2019-08-01 10:17:45.515625,-19.28
2019-08-01 10:17:45.531250,-24.85
2019-08-01 10:17:45.546875,-36.43
2019-08-01 10:17:45.562500,-49.31
2019-08-01 10:17:45.578125,-57.88
2019-08-01 10:17:45.593750,-58.61
2019-08-01 10:17:45.609375,-51.8
2019-08-01 10:17:45.625000,-40.97
2019-08-01 10:17:45.640625,-30.69
2019-08-01 10:17:45.656250,-23.96
2019-08-01 10:17:45.671875,-20.93
2019-08-01 10:17:45.687500,-19.47
2019-08-01 10:17:45.703125,-17.15
2019-08-01 10:17:45.718750,-13.09
2019-08-01 10:17:45.734375,-8.68
2019-08-01 10:17:45.750000,-6.58
2019-08-01 10:17:45.765625,-8.87
2019-08-01 10:17:45.781250,-15.48
2019-08-01 10:17:45.796875,-23.78
2019-08-01 10:17:45.812500,-29.81
2019-08-01 10:17:45.828125,-30.36
2019-08-01 10:17:45.843750,-24.67
2019-08-01 10:17:45.859375,-14.89
2019-08-01 10:17:45.875000,-4.79
2019-08-01 10:17:45.890625,2.22
2019-08-01 10:17:45.906250,4.94
2019-08-01 10:17:45.921875,4.81
2019-08-01 10:17:45.937500,4.82
2019-08-01 10:17:45.953125,7.47
2019-08-01 10:17:45.968750,13.12
2019-08-01 10:17:45.984375,19.56
2019-08-01 10:17:46.000000,23.19
2019-08-01 10:17:46.015625,21.15
2019-08-01 10:17:46.031250,13.1
2019-08-01 10:17:46.046875,1.63
2019-08-01 10:17:46.062500,-9.01
2019-08-01 10:17:46.078125,-15.04
2019-08-01 10:17:46.093750,-14.99
2019-08-01 10:17:46.109375,-10.28
2019-08-01 10:17:46.125000,-4.19
2019-08-01 10:17:46.140625,0.09
2019-08-01 10:17:46.156250,1.24
2019-08-01 10:17:46.171875,0.36
2019-08-01 10:17:46.187500,0.07
2019-08-01 10:17:46.203125,2.69
2019-08-01 10:17:46.218750,8.59
2019-08-01 10:17:46.234375,15.78
2019-08-01 10:17:46.250000,20.91
2019-08-01 10:17:46.265625,21.27
2019-08-01 10:17:46.281250,16.39
2019-08-01 10:17:46.296875,8.49
2019-08-01 10:17:46.312500,1.38
2019-08-01 10:17:46.328125,-1.61
2019-08-01 10:17:46.343750,0.61
2019-08-01 10:17:46.359375,6.29
2019-08-01 10:17:46.375000,11.83
2019-08-01 10:17:46.390625,13.78
2019-08-01 10:17:46.406250,10.76
2019-08-01 10:17:46.421875,4.28
2019-08-01 10:17:46.437500,-2.15
2019-08-01 10:17:46.453125,-4.97
2019-08-01 10:17:46.468750,-2.54
2019-08-01 10:17:46.484375,3.83
2019-08-01 10:17:46.500000,10.63
2019-08-01 10:17:46.515625,14.01
2019-08-01 10:17:46.531250,11.89
2019-08-01 10:17:46.546875,5.07
2019-08-01 10:17:46.562500,-3.21
2019-08-01 10:17:46.578125,-8.92
2019-08-01 10:17:46.593750,-9.22
2019-08-01 10:17:46.609375,-3.77
2019-08-01 10:17:46.625000,5.57
2019-08-01 10:17:46.640625,16.0
2019-08-01 10:17:46.656250,25.48
2019-08-01 10:17:46.671875,33.57
2019-08-01 10:17:46.687500,41.09
2019-08-01 10:17:46.703125,48.78
2019-08-01 10:17:46.718750,55.87
2019-08-01 10:17:46.734375,59.8
2019-08-01 10:17:46.750000,57.03
2019-08-01 10:17:46.765625,45.2
2019-08-01 10:17:46.781250,24.83
2019-08-01 10:17:46.796875,-0.07
2019-08-01 10:17:46.812500,-23.38
2019-08-01 10:17:46.828125,-39.28
2019-08-01 10:17:46.843750,-44.71
2019-08-01 10:17:46.859375,-40.45
2019-08-01 10:17:46.875000,-30.24
2019-08-01 10:17:46.890625,-18.7
2019-08-01 10:17:46.906250,-8.97
2019-08-01 10:17:46.921875,-1.7
2019-08-01 10:17:46.937500,4.33
2019-08-01 10:17:46.953125,10.53
2019-08-01 10:17:46.968750,16.96
2019-08-01 10:17:46.984375,21.88
2019-08-01 10:17:47.000000,22.77
2019-08-01 10:17:47.015625,18.04
2019-08-01 10:17:47.031250,8.49
2019-08-01 10:17:47.046875,-2.79
2019-08-01 10:17:47.062500,-11.73
2019-08-01 10:17:47.078125,-15.27
2019-08-01 10:17:47.093750,-12.88
2019-08-01 10:17:47.109375,-6.82
2019-08-01 10:17:47.125000,-0.89
2019-08-01 10:17:47.140625,1.42
2019-08-01 10:17:47.156250,-1.19
2019-08-01 10:17:47.171875,-7.28
2019-08-01 10:17:47.187500,-13.45
2019-08-01 10:17:47.203125,-16.23
2019-08-01 10:17:47.218750,-13.84
2019-08-01 10:17:47.234375,-7.12
2019-08-01 10:17:47.250000,0.9
2019-08-01 10:17:47.265625,6.79
2019-08-01 10:17:47.281250,8.44
2019-08-01 10:17:47.296875,6.23
2019-08-01 10:17:47.312500,2.59
2019-08-01 10:17:47.328125,0.4
2019-08-01 10:17:47.343750,1.17
2019-08-01 10:17:47.359375,4.1
2019-08-01 10:17:47.375000,6.68
2019-08-01 10:17:47.390625,6.29
2019-08-01 10:17:47.406250,1.98
2019-08-01 10:17:47.421875,-4.91
2019-08-01 10:17:47.437500,-11.5
2019-08-01 10:17:47.453125,-15.13
2019-08-01 10:17:47.468750,-14.86
2019-08-01 10:17:47.484375,-12.0
2019-08-01 10:17:47.500000,-9.21
2019-08-01 10:17:47.515625,-8.93
2019-08-01 10:17:47.531250,-11.87
2019-08-01 10:17:47.546875,-16.58
2019-08-01 10:17:47.562500,-20.26
2019-08-01 10:17:47.578125,-20.26
2019-08-01 10:17:47.593750,-15.57
2019-08-01 10:17:47.609375,-7.27
2019-08-01 10:17:47.625000,1.93
2019-08-01 10:17:47.640625,9.09
2019-08-01 10:17:47.656250,12.4
2019-08-01 10:17:47.671875,11.95
2019-08-01 10:17:47.687500,9.42
2019-08-01 10:17:47.703125,7.0
2019-08-01 10:17:47.718750,6.1
2019-08-01 10:17:47.734375,6.56
2019-08-01 10:17:47.750000,6.86
2019-08-01 10:17:47.765625,5.2
2019-08-01 10:17:47.781250,0.72
2019-08-01 10:17:47.796875,-5.68
2019-08-01 10:17:47.812500,-11.77
2019-08-01 10:17:47.828125,-15.16
2019-08-01 10:17:47.843750,-14.73
2019-08-01 10:17:47.859375,-11.26
2019-08-01 10:17:47.875000,-7.01
2019-08-01 10:17:47.890625,-4.34
2019-08-01 10:17:47.906250,-4.25
2019-08-01 10:17:47.921875,-5.81
2019-08-01 10:17:47.937500,-6.83
2019-08-01 10:17:47.953125,-5.36
2019-08-01 10:17:47.968750,-1.13
2019-08-01 10:17:47.984375,4.22
2019-08-01 10:17:48.000000,8.09
2019-08-01 10:17:48.015625,8.56
2019-08-01 10:17:48.031250,5.56
2019-08-01 10:17:48.046875,0.98
2019-08-01 10:17:48.062500,-2.58
2019-08-01 10:17:48.078125,-3.31
2019-08-01 10:17:48.093750,-1.26
2019-08-01 10:17:48.109375,1.82
2019-08-01 10:17:48.125000,3.46
2019-08-01 10:17:48.140625,2.02
2019-08-01 10:17:48.156250,-2.57
2019-08-01 10:17:48.171875,-8.62
2019-08-01 10:17:48.187500,-13.65
2019-08-01 10:17:48.203125,-15.63
2019-08-01 10:17:48.218750,-13.89
2019-08-01 10:17:48.234375,-9.51
2019-08-01 10:17:48.250000,-4.58
2019-08-01 10:17:48.265625,-1.13
2019-08-01 10:17:48.281250,-0.08
2019-08-01 10:17:48.296875,-0.78
2019-08-01 10:17:48.312500,-1.59
2019-08-01 10:17:48.328125,-1.04
2019-08-01 10:17:48.343750,1.1
2019-08-01 10:17:48.359375,3.52
2019-08-01 10:17:48.375000,4.08
2019-08-01 10:17:48.390625,1.21
2019-08-01 10:17:48.406250,-4.95
2019-08-01 10:17:48.421875,-12.34
2019-08-01 10:17:48.437500,-17.98
2019-08-01 10:17:48.453125,-19.51
2019-08-01 10:17:48.468750,-16.49
2019-08-01 10:17:48.484375,-10.63
2019-08-01 10:17:48.500000,-4.85
2019-08-01 10:17:48.515625,-1.67
2019-08-01 10:17:48.531250,-1.94
2019-08-01 10:17:48.546875,-4.57
2019-08-01 10:17:48.562500,-7.35
2019-08-01 10:17:48.578125,-8.31
2019-08-01 10:17:48.593750,-6.88
2019-08-01 10:17:48.609375,-4.04
2019-08-01 10:17:48.625000,-1.58
2019-08-01 10:17:48.640625,-0.89
2019-08-01 10:17:48.656250,-2.04
2019-08-01 10:17:48.671875,-3.78
2019-08-01 10:17:48.687500,-4.38
2019-08-01 10:17:48.703125,-2.75
2019-08-01 10:17:48.718750,0.94
2019-08-01 10:17:48.734375,5.35
2019-08-01 10:17:48.750000,8.77
2019-08-01 10:17:48.765625,10.21
2019-08-01 10:17:48.781250,9.96
2019-08-01 10:17:48.796875,9.54
2019-08-01 10:17:48.812500,10.89
2019-08-01 10:17:48.828125,15.3
2019-08-01 10:17:48.843750,22.83
2019-08-01 10:17:48.859375,32.38
2019-08-01 10:17:48.875000,42.43
2019-08-01 10:17:48.890625,52.01
2019-08-01 10:17:48.906250,61.13
2019-08-01 10:17:48.921875,70.6
2019-08-01 10:17:48.937500,81.3
2019-08-01 10:17:48.953125,93.14
2019-08-01 10:17:48.968750,104.81
2019-08-01 10:17:48.984375,114.38
2019-08-01 10:17:49.000000,120.54
2019-08-01 10:17:49.015625,123.76
2019-08-01 10:17:49.031250,126.53
2019-08-01 10:17:49.046875,132.33
2019-08-01 10:17:49.062500,143.98
2019-08-01 10:17:49.078125,162.41
2019-08-01 10:17:49.093750,186.17
2019-08-01 10:17:49.109375,211.97
2019-08-01 10:17:49.125000,236.19
2019-08-01 10:17:49.140625,256.17
2019-08-01 10:17:49.156250,270.94
2019-08-01 10:17:49.171875,281.62
2019-08-01 10:17:49.187500,289.63
2019-08-01 10:17:49.203125,295.64
2019-08-01 10:17:49.218750,298.93
2019-08-01 10:17:49.234375,297.47
2019-08-01 10:17:49.250000,288.76
2019-08-01 10:17:49.265625,270.99
2019-08-01 10:17:49.281250,243.67
2019-08-01 10:17:49.296875,208.57
2019-08-01 10:17:49.312500,168.94
2019-08-01 10:17:49.328125,128.36
2019-08-01 10:17:49.343750,89.49
2019-08-01 10:17:49.359375,53.22
2019-08-01 10:17:49.375000,18.6
2019-08-01 10:17:49.390625,-16.68
2019-08-01 10:17:49.406250,-55.49
2019-08-01 10:17:49.421875,-100.45
2019-08-01 10:17:49.437500,-152.84
2019-08-01 10:17:49.453125,-211.3
2019-08-01 10:17:49.468750,-270.58
2019-08-01 10:17:49.484375,-321.47
2019-08-01 10:17:49.500000,-352.92
2019-08-01 10:17:49.515625,-356.29
2019-08-01 10:17:49.531250,-329.92
2019-08-01 10:17:49.546875,-281.23
2019-08-01 10:17:49.562500,-224.92
2019-08-01 10:17:49.578125,-177.32
2019-08-01 10:17:49.593750,-149.9
2019-08-01 10:17:49.609375,-145.44
2019-08-01 10:17:49.625000,-158.55
2019-08-01 10:17:49.640625,-179.89
2019-08-01 10:17:49.656250,-201.34
2019-08-01 10:17:49.671875,-218.93
2019-08-01 10:17:49.687500,-232.42
2019-08-01 10:17:49.703125,-243.35
2019-08-01 10:17:49.718750,-253.15
2019-08-01 10:17:49.734375,-262.81
2019-08-01 10:17:49.750000,-273.35
2019-08-01 10:17:49.765625,-285.76
2019-08-01 10:17:49.781250,-299.44
2019-08-01 10:17:49.796875,-310.52
2019-08-01 10:17:49.812500,-311.83
2019-08-01 10:17:49.828125,-295.36
2019-08-01 10:17:49.843750,-256.64
2019-08-01 10:17:49.859375,-198.17
2019-08-01 10:17:49.875000,-129.92
2019-08-01 10:17:49.890625,-65.72
2019-08-01 10:17:49.906250,-17.84
2019-08-01 10:17:49.921875,7.52
2019-08-01 10:17:49.937500,11.38
2019-08-01 10:17:49.953125,-0.38
2019-08-01 10:17:49.968750,-21.02
2019-08-01 10:17:49.984375,-45.79
2019-08-01 10:17:50.000000,-72.3
2019-08-01 10:17:50.015625,-98.79
2019-08-01 10:17:50.031250,-122.37
2019-08-01 10:17:50.046875,-138.58
2019-08-01 10:17:50.062500,-143.31
2019-08-01 10:17:50.078125,-135.22
2019-08-01 10:17:50.093750,-117.53
2019-08-01 10:17:50.109375,-97.15
2019-08-01 10:17:50.125000,-81.77
2019-08-01 10:17:50.140625,-76.49
2019-08-01 10:17:50.156250,-81.95
2019-08-01 10:17:50.171875,-94.7
2019-08-01 10:17:50.187500,-109.03
2019-08-01 10:17:50.203125,-119.34
2019-08-01 10:17:50.218750,-121.9
2019-08-01 10:17:50.234375,-115.34
2019-08-01 10:17:50.250000,-100.24
2019-08-01 10:17:50.265625,-78.47
2019-08-01 10:17:50.281250,-52.46
2019-08-01 10:17:50.296875,-23.86
2019-08-01 10:17:50.312500,6.1
2019-08-01 10:17:50.328125,37.21
2019-08-01 10:17:50.343750,70.25
2019-08-01 10:17:50.359375,106.29
2019-08-01 10:17:50.375000,145.5
2019-08-01 10:17:50.390625,186.55
2019-08-01 10:17:50.406250,226.48
2019-08-01 10:17:50.421875,261.74
2019-08-01 10:17:50.437500,289.63
2019-08-01 10:17:50.453125,309.11
2019-08-01 10:17:50.468750,320.91
2019-08-01 10:17:50.484375,326.55
2019-08-01 10:17:50.500000,327.23
2019-08-01 10:17:50.515625,323.43
2019-08-01 10:17:50.531250,315.2
2019-08-01 10:17:50.546875,302.75
2019-08-01 10:17:50.562500,286.72
2019-08-01 10:17:50.578125,268.61
2019-08-01 10:17:50.593750,250.1
2019-08-01 10:17:50.609375,232.73
2019-08-01 10:17:50.625000,217.39
2019-08-01 10:17:50.640625,203.99
2019-08-01 10:17:50.656250,191.64
2019-08-01 10:17:50.671875,179.29
2019-08-01 10:17:50.687500,165.89
2019-08-01 10:17:50.703125,150.71
2019-08-01 10:17:50.718750,133.42
2019-08-01 10:17:50.734375,113.82
2019-08-01 10:17:50.750000,91.78
2019-08-01 10:17:50.765625,67.7
2019-08-01 10:17:50.781250,40.83
2019-08-01 10:17:50.796875,10.19
2019-08-01 10:17:50.812500,-24.66
2019-08-01 10:17:50.828125,-63.51
2019-08-01 10:17:50.843750,-105.52
2019-08-01 10:17:50.859375,-149.3
2019-08-01 10:17:50.875000,-193.06
2019-08-01 10:17:50.890625,-234.92
2019-08-01 10:17:50.906250,-273.0
2019-08-01 10:17:50.921875,-305.66
2019-08-01 10:17:50.937500,-331.64
2019-08-01 10:17:50.953125,-349.49
2019-08-01 10:17:50.968750,-357.89
2019-08-01 10:17:50.984375,-355.83
2019-08-01 10:17:51.000000,-342.8
2019-08-01 10:17:51.015625,-318.94
2019-08-01 10:17:51.031250,-285.19
2019-08-01 10:17:51.046875,-243.17
2019-08-01 10:17:51.062500,-193.23
2019-08-01 10:17:51.078125,-138.45
2019-08-01 10:17:51.093750,-82.55
2019-08-01 10:17:51.109375,-29.13
2019-08-01 10:17:51.125000,18.92
2019-08-01 10:17:51.140625,59.6
2019-08-01 10:17:51.156250,91.93
2019-08-01 10:17:51.171875,115.83
2019-08-01 10:17:51.187500,131.84
2019-08-01 10:17:51.203125,140.96
2019-08-01 10:17:51.218750,144.15
2019-08-01 10:17:51.234375,142.78
2019-08-01 10:17:51.250000,138.26
2019-08-01 10:17:51.265625,131.81
2019-08-01 10:17:51.281250,124.4
2019-08-01 10:17:51.296875,116.69
2019-08-01 10:17:51.312500,109.06
2019-08-01 10:17:51.328125,101.71
2019-08-01 10:17:51.343750,94.68
2019-08-01 10:17:51.359375,87.68
2019-08-01 10:17:51.375000,80.72
2019-08-01 10:17:51.390625,73.88
2019-08-01 10:17:51.406250,67.3
2019-08-01 10:17:51.421875,61.09
2019-08-01 10:17:51.437500,55.31
2019-08-01 10:17:51.453125,50.0
2019-08-01 10:17:51.468750,45.11
2019-08-01 10:17:51.484375,40.56
2019-08-01 10:17:51.500000,36.17
2019-08-01 10:17:51.515625,31.88
2019-08-01 10:17:51.531250,27.74
2019-08-01 10:17:51.546875,23.83
2019-08-01 10:17:51.562500,20.21
2019-08-01 10:17:51.578125,16.93
2019-08-01 10:17:51.593750,14.01
2019-08-01 10:17:51.609375,11.4
2019-08-01 10:17:51.625000,9.03
2019-08-01 10:17:51.640625,6.75
2019-08-01 10:17:51.656250,4.52
2019-08-01 10:17:51.671875,2.35
2019-08-01 10:17:51.687500,0.3
2019-08-01 10:17:51.703125,-1.55
2019-08-01 10:17:51.718750,-3.14
2019-08-01 10:17:51.734375,-4.44
2019-08-01 10:17:51.750000,-5.48
2019-08-01 10:17:51.765625,-6.35
2019-08-01 10:17:51.781250,-7.15
2019-08-01 10:17:51.796875,-7.93
2019-08-01 10:17:51.812500,-8.7
2019-08-01 10:17:51.828125,-9.4
2019-08-01 10:17:51.843750,-9.95
2019-08-01 10:17:51.859375,-10.27
2019-08-01 10:17:51.875000,-10.37
2019-08-01 10:17:51.890625,-10.14
2019-08-01 10:17:51.906250,-9.8
2019-08-01 10:17:51.921875,-9.52
2019-08-01 10:17:51.937500,-9.41
2019-08-01 10:17:51.953125,-9.46
2019-08-01 10:17:51.968750,-9.6
2019-08-01 10:17:51.984375,-9.66
2019-08-01 10:17:52.000000,-9.49
2019-08-01 10:17:52.015625,-9.04
2019-08-01 10:17:52.031250,-8.4
2019-08-01 10:17:52.046875,-7.87
2019-08-01 10:17:52.062500,-7.72
2019-08-01 10:17:52.078125,-8.15
2019-08-01 10:17:52.093750,-9.14
2019-08-01 10:17:52.109375,-10.39
2019-08-01 10:17:52.125000,-11.47
2019-08-01 10:17:52.140625,-11.98
2019-08-01 10:17:52.156250,-11.76
2019-08-01 10:17:52.171875,-11.05
2019-08-01 10:17:52.187500,-10.42
2019-08-01 10:17:52.203125,-10.51
2019-08-01 10:17:52.218750,-11.76
2019-08-01 10:17:52.234375,-14.11
2019-08-01 10:17:52.250000,-17.01
2019-08-01 10:17:52.265625,-19.59
2019-08-01 10:17:52.281250,-21.07
2019-08-01 10:17:52.296875,-21.14
2019-08-01 10:17:52.312500,-20.22
2019-08-01 10:17:52.328125,-19.28
2019-08-01 10:17:52.343750,-19.45
2019-08-01 10:17:52.359375,-21.45
2019-08-01 10:17:52.375000,-25.22
2019-08-01 10:17:52.390625,-29.9
2019-08-01 10:17:52.406250,-34.11
2019-08-01 10:17:52.421875,-36.8
2019-08-01 10:17:52.437500,-37.51
2019-08-01 10:17:52.453125,-36.7
2019-08-01 10:17:52.468750,-35.48
2019-08-01 10:17:52.484375,-35.02
2019-08-01 10:17:52.500000,-36.25
2019-08-01 10:17:52.515625,-39.76
2019-08-01 10:17:52.531250,-45.87
2019-08-01 10:17:52.546875,-54.33
2019-08-01 10:17:52.562500,-63.71
2019-08-01 10:17:52.578125,-71.02
2019-08-01 10:17:52.593750,-72.1
2019-08-01 10:17:52.609375,-63.18
2019-08-01 10:17:52.625000,-42.88
2019-08-01 10:17:52.640625,-13.61
2019-08-01 10:17:52.656250,18.89
2019-08-01 10:17:52.671875,47.59
2019-08-01 10:17:52.687500,67.16
2019-08-01 10:17:52.703125,75.95
2019-08-01 10:17:52.718750,76.08
2019-08-01 10:17:52.734375,71.64
2019-08-01 10:17:52.750000,66.33
2019-08-01 10:17:52.765625,61.85
2019-08-01 10:17:52.781250,57.88
2019-08-01 10:17:52.796875,53.43
2019-08-01 10:17:52.812500,48.09
2019-08-01 10:17:52.828125,42.66
2019-08-01 10:17:52.843750,38.54
2019-08-01 10:17:52.859375,36.74
2019-08-01 10:17:52.875000,37.07
2019-08-01 10:17:52.890625,38.29
2019-08-01 10:17:52.906250,38.8
2019-08-01 10:17:52.921875,37.29
2019-08-01 10:17:52.937500,33.59
2019-08-01 10:17:52.953125,28.55
2019-08-01 10:17:52.968750,23.65
2019-08-01 10:17:52.984375,20.3
2019-08-01 10:17:53.000000,19.23
2019-08-01 10:17:53.015625,20.22
2019-08-01 10:17:53.031250,22.24
2019-08-01 10:17:53.046875,23.9
2019-08-01 10:17:53.062500,24.08
2019-08-01 10:17:53.078125,22.39
2019-08-01 10:17:53.093750,19.3
2019-08-01 10:17:53.109375,15.95
2019-08-01 10:17:53.125000,13.6
2019-08-01 10:17:53.140625,13.17
2019-08-01 10:17:53.156250,14.79
2019-08-01 10:17:53.171875,17.83
2019-08-01 10:17:53.187500,21.07
2019-08-01 10:17:53.203125,23.3
2019-08-01 10:17:53.218750,23.76
2019-08-01 10:17:53.234375,22.51
2019-08-01 10:17:53.250000,20.46
2019-08-01 10:17:53.265625,18.89
2019-08-01 10:17:53.281250,19.03
2019-08-01 10:17:53.296875,21.4
2019-08-01 10:17:53.312500,25.65
2019-08-01 10:17:53.328125,30.59
2019-08-01 10:17:53.343750,34.75
2019-08-01 10:17:53.359375,37.18
2019-08-01 10:17:53.375000,37.6
2019-08-01 10:17:53.390625,36.68
2019-08-01 10:17:53.406250,35.64
2019-08-01 10:17:53.421875,35.62
2019-08-01 10:17:53.437500,37.4
2019-08-01 10:17:53.453125,41.43
2019-08-01 10:17:53.468750,47.86
2019-08-01 10:17:53.484375,56.39
2019-08-01 10:17:53.500000,65.61
2019-08-01 10:17:53.515625,72.63
2019-08-01 10:17:53.531250,73.58
2019-08-01 10:17:53.546875,65.01
2019-08-01 10:17:53.562500,45.8
2019-08-01 10:17:53.578125,18.45
2019-08-01 10:17:53.593750,-11.47
2019-08-01 10:17:53.609375,-37.35
2019-08-01 10:17:53.625000,-54.31
2019-08-01 10:17:53.640625,-61.04
2019-08-01 10:17:53.656250,-59.74
2019-08-01 10:17:53.671875,-54.33
2019-08-01 10:17:53.687500,-48.17
2019-08-01 10:17:53.703125,-42.76
2019-08-01 10:17:53.718750,-37.71
2019-08-01 10:17:53.734375,-32.09
2019-08-01 10:17:53.750000,-25.66
2019-08-01 10:17:53.765625,-19.25
2019-08-01 10:17:53.781250,-14.25
2019-08-01 10:17:53.796875,-11.53
2019-08-01 10:17:53.812500,-10.93
2019-08-01 10:17:53.828125,-11.31
2019-08-01 10:17:53.843750,-11.37
2019-08-01 10:17:53.859375,-10.13
2019-08-01 10:17:53.875000,-7.64
2019-08-01 10:17:53.890625,-4.74
2019-08-01 10:17:53.906250,-2.62
2019-08-01 10:17:53.921875,-2.21
2019-08-01 10:17:53.937500,-3.59
2019-08-01 10:17:53.953125,-6.11
2019-08-01 10:17:53.968750,-8.6
2019-08-01 10:17:53.984375,-9.94
2019-08-01 10:17:54.000000,-9.49
2019-08-01 10:17:54.015625,-7.42
2019-08-01 10:17:54.031250,-4.54
2019-08-01 10:17:54.046875,-1.96
2019-08-01 10:17:54.062500,-0.71
2019-08-01 10:17:54.078125,-1.22
2019-08-01 10:17:54.093750,-3.45
2019-08-01 10:17:54.109375,-6.88
2019-08-01 10:17:54.125000,-10.89
2019-08-01 10:17:54.140625,-14.89
2019-08-01 10:17:54.156250,-18.61
2019-08-01 10:17:54.171875,-21.9
2019-08-01 10:17:54.187500,-24.21
2019-08-01 10:17:54.203125,-25.92
2019-08-01 10:17:54.218750,-26.9
2019-08-01 10:17:54.234375,-26.9
2019-08-01 10:17:54.250000,-26.28
2019-08-01 10:17:54.265625,-24.62
2019-08-01 10:17:54.281250,-22.01
2019-08-01 10:17:54.296875,-18.81
2019-08-01 10:17:54.312500,-15.55
2019-08-01 10:17:54.328125,-12.71
2019-08-01 10:17:54.343750,-10.7
2019-08-01 10:17:54.359375,-9.67
2019-08-01 10:17:54.375000,-9.61
2019-08-01 10:17:54.390625,-9.65
2019-08-01 10:17:54.406250,-10.24
2019-08-01 10:17:54.421875,-11.31
2019-08-01 10:17:54.437500,-12.7
2019-08-01 10:17:54.453125,-14.16
2019-08-01 10:17:54.468750,-15.41
2019-08-01 10:17:54.484375,-16.27
2019-08-01 10:17:54.500000,-16.54
2019-08-01 10:17:54.515625,-16.21
2019-08-01 10:17:54.531250,-15.44
2019-08-01 10:17:54.546875,-14.57
2019-08-01 10:17:54.562500,-13.86
2019-08-01 10:17:54.578125,-13.48
2019-08-01 10:17:54.593750,-13.37
2019-08-01 10:17:54.609375,-13.33
2019-08-01 10:17:54.625000,-13.03
2019-08-01 10:17:54.640625,-12.21
2019-08-01 10:17:54.656250,-10.89
2019-08-01 10:17:54.671875,-9.36
2019-08-01 10:17:54.687500,-8.1
2019-08-01 10:17:54.703125,-7.55
2019-08-01 10:17:54.718750,-7.95
2019-08-01 10:17:54.734375,-9.17
2019-08-01 10:17:54.750000,-10.98
2019-08-01 10:17:54.765625,-12.44
2019-08-01 10:17:54.781250,-12.97
2019-08-01 10:17:54.796875,-12.38
2019-08-01 10:17:54.812500,-11.05
2019-08-01 10:17:54.828125,-9.73
2019-08-01 10:17:54.843750,-9.24
2019-08-01 10:17:54.859375,-10.11
2019-08-01 10:17:54.875000,-12.29
2019-08-01 10:17:54.890625,-15.14
2019-08-01 10:17:54.906250,-17.84
2019-08-01 10:17:54.921875,-19.43
2019-08-01 10:17:54.937500,-19.44
2019-08-01 10:17:54.953125,-17.91
2019-08-01 10:17:54.968750,-15.45
2019-08-01 10:17:54.984375,-13.14
2019-08-01 10:17:55.000000,-12.51
2019-08-01 10:17:55.015625,-15.12
2019-08-01 10:17:55.031250,-21.56
2019-08-01 10:17:55.046875,-30.66
2019-08-01 10:17:55.062500,-38.9
2019-08-01 10:17:55.078125,-41.21
2019-08-01 10:17:55.093750,-32.97
2019-08-01 10:17:55.109375,-12.26
2019-08-01 10:17:55.125000,18.97
2019-08-01 10:17:55.140625,55.36
2019-08-01 10:17:55.156250,90.03
2019-08-01 10:17:55.171875,116.69
2019-08-01 10:17:55.187500,131.18
2019-08-01 10:17:55.203125,131.82
2019-08-01 10:17:55.218750,119.02
2019-08-01 10:17:55.234375,94.87
2019-08-01 10:17:55.250000,62.91
2019-08-01 10:17:55.265625,27.85
2019-08-01 10:17:55.281250,-4.97
2019-08-01 10:17:55.296875,-30.84
2019-08-01 10:17:55.312500,-47.06
2019-08-01 10:17:55.328125,-53.63
2019-08-01 10:17:55.343750,-52.89
2019-08-01 10:17:55.359375,-48.32
2019-08-01 10:17:55.375000,-43.15
2019-08-01 10:17:55.390625,-39.5
2019-08-01 10:17:55.406250,-38.62
2019-08-01 10:17:55.421875,-40.83
2019-08-01 10:17:55.437500,-45.75
2019-08-01 10:17:55.453125,-52.38
2019-08-01 10:17:55.468750,-59.13
2019-08-01 10:17:55.484375,-64.32
2019-08-01 10:17:55.500000,-66.88
2019-08-01 10:17:55.515625,-66.95
2019-08-01 10:17:55.531250,-65.66
2019-08-01 10:17:55.546875,-64.88
2019-08-01 10:17:55.562500,-66.37
2019-08-01 10:17:55.578125,-71.42
2019-08-01 10:17:55.593750,-80.53
2019-08-01 10:17:55.609375,-92.89
2019-08-01 10:17:55.625000,-106.02
2019-08-01 10:17:55.640625,-115.95
2019-08-01 10:17:55.656250,-118.15
2019-08-01 10:17:55.671875,-109.29
2019-08-01 10:17:55.687500,-89.16
2019-08-01 10:17:55.703125,-61.32
2019-08-01 10:17:55.718750,-32.14
2019-08-01 10:17:55.734375,-8.39
2019-08-01 10:17:55.750000,5.42
2019-08-01 10:17:55.765625,8.63
2019-08-01 10:17:55.781250,4.03
2019-08-01 10:17:55.796875,-4.23
2019-08-01 10:17:55.812500,-12.83
2019-08-01 10:17:55.828125,-20.58
2019-08-01 10:17:55.843750,-28.03
2019-08-01 10:17:55.859375,-36.04
2019-08-01 10:17:55.875000,-44.74
2019-08-01 10:17:55.890625,-53.02
2019-08-01 10:17:55.906250,-59.13
2019-08-01 10:17:55.921875,-61.76
2019-08-01 10:17:55.937500,-60.64
2019-08-01 10:17:55.953125,-56.44
2019-08-01 10:17:55.968750,-50.17
2019-08-01 10:17:55.984375,-42.67
2019-08-01 10:17:56.000000,-33.65
2019-08-01 10:17:56.015625,-22.35
2019-08-01 10:17:56.031250,-7.98
2019-08-01 10:17:56.046875,9.84
2019-08-01 10:17:56.062500,30.54
2019-08-01 10:17:56.078125,52.69
2019-08-01 10:17:56.093750,74.29
2019-08-01 10:17:56.109375,93.43
2019-08-01 10:17:56.125000,108.03
2019-08-01 10:17:56.140625,117.99
2019-08-01 10:17:56.156250,123.92
2019-08-01 10:17:56.171875,126.73
2019-08-01 10:17:56.187500,127.42
2019-08-01 10:17:56.203125,126.67
2019-08-01 10:17:56.218750,124.73
2019-08-01 10:17:56.234375,121.53
2019-08-01 10:17:56.250000,117.08
2019-08-01 10:17:56.265625,111.97
2019-08-01 10:17:56.281250,106.3
2019-08-01 10:17:56.296875,100.49
2019-08-01 10:17:56.312500,95.06
2019-08-01 10:17:56.328125,90.37
2019-08-01 10:17:56.343750,86.47
2019-08-01 10:17:56.359375,83.23
2019-08-01 10:17:56.375000,80.22
2019-08-01 10:17:56.390625,77.1
2019-08-01 10:17:56.406250,73.59
2019-08-01 10:17:56.421875,69.56
2019-08-01 10:17:56.437500,64.95
2019-08-01 10:17:56.453125,59.73
2019-08-01 10:17:56.468750,53.84
2019-08-01 10:17:56.484375,47.16
2019-08-01 10:17:56.500000,39.98
2019-08-01 10:17:56.515625,31.87
2019-08-01 10:17:56.531250,22.84
2019-08-01 10:17:56.546875,13.07
2019-08-01 10:17:56.562500,2.86
2019-08-01 10:17:56.578125,-7.37
2019-08-01 10:17:56.593750,-17.22
2019-08-01 10:17:56.609375,-26.31
2019-08-01 10:17:56.625000,-34.28
2019-08-01 10:17:56.640625,-40.86
2019-08-01 10:17:56.656250,-45.95
2019-08-01 10:17:56.671875,-49.41
2019-08-01 10:17:56.687500,-51.22
2019-08-01 10:17:56.703125,-51.55
2019-08-01 10:17:56.718750,-50.57
2019-08-01 10:17:56.734375,-48.57
2019-08-01 10:17:56.750000,-45.86
2019-08-01 10:17:56.765625,-42.79
2019-08-01 10:17:56.781250,-39.69
2019-08-01 10:17:56.796875,-36.93
2019-08-01 10:17:56.812500,-34.66
2019-08-01 10:17:56.828125,-33.04
2019-08-01 10:17:56.843750,-32.18
2019-08-01 10:17:56.859375,-32.14
2019-08-01 10:17:56.875000,-32.96
2019-08-01 10:17:56.890625,-34.61
2019-08-01 10:17:56.906250,-37.04
2019-08-01 10:17:56.921875,-40.15
2019-08-01 10:17:56.937500,-43.85
2019-08-01 10:17:56.953125,-47.78
2019-08-01 10:17:56.968750,-51.59
2019-08-01 10:17:56.984375,-55.1
2019-08-01 10:17:57.000000,-58.09
2019-08-01 10:17:57.015625,-60.47
2019-08-01 10:17:57.031250,-62.21
2019-08-01 10:17:57.046875,-63.41
2019-08-01 10:17:57.062500,-64.32
2019-08-01 10:17:57.078125,-65.3
2019-08-01 10:17:57.093750,-66.28
2019-08-01 10:17:57.109375,-67.35
2019-08-01 10:17:57.125000,-68.72
2019-08-01 10:17:57.140625,-70.53
2019-08-01 10:17:57.156250,-72.95
2019-08-01 10:17:57.171875,-76.11
2019-08-01 10:17:57.187500,-80.09
2019-08-01 10:17:57.203125,-84.98
2019-08-01 10:17:57.218750,-90.92
2019-08-01 10:17:57.234375,-97.22
2019-08-01 10:17:57.250000,-103.4
2019-08-01 10:17:57.265625,-109.12
2019-08-01 10:17:57.281250,-114.11
2019-08-01 10:17:57.296875,-118.23
2019-08-01 10:17:57.312500,-121.48
2019-08-01 10:17:57.328125,-124.03
2019-08-01 10:17:57.343750,-126.2
2019-08-01 10:17:57.359375,-128.54
2019-08-01 10:17:57.375000,-130.59
2019-08-01 10:17:57.390625,-132.19
2019-08-01 10:17:57.406250,-133.26
2019-08-01 10:17:57.421875,-133.65
2019-08-01 10:17:57.437500,-133.11
2019-08-01 10:17:57.453125,-131.13
2019-08-01 10:17:57.468750,-126.67
2019-08-01 10:17:57.484375,-117.84
2019-08-01 10:17:57.500000,-109.21
2019-08-01 10:17:57.515625,-101.95
2019-08-01 10:17:57.531250,-96.52
2019-08-01 10:17:57.546875,-92.86
2019-08-01 10:17:57.562500,-90.58
2019-08-01 10:17:57.578125,-89.12
2019-08-01 10:17:57.593750,-87.88
2019-08-01 10:17:57.609375,-86.46
2019-08-01 10:17:57.625000,-84.65
2019-08-01 10:17:57.640625,-82.6
2019-08-01 10:17:57.656250,-79.48
2019-08-01 10:17:57.671875,-74.87
2019-08-01 10:17:57.687500,-68.47
2019-08-01 10:17:57.703125,-60.1
2019-08-01 10:17:57.718750,-49.76
2019-08-01 10:17:57.734375,-37.73
2019-08-01 10:17:57.750000,-24.58
2019-08-01 10:17:57.765625,-11.14
2019-08-01 10:17:57.781250,1.61
2019-08-01 10:17:57.796875,13.66
2019-08-01 10:17:57.812500,25.05
2019-08-01 10:17:57.828125,36.05
2019-08-01 10:17:57.843750,47.09
2019-08-01 10:17:57.859375,58.49
2019-08-01 10:17:57.875000,70.28
2019-08-01 10:17:57.890625,82.05
2019-08-01 10:17:57.906250,93.01
2019-08-01 10:17:57.921875,102.22
2019-08-01 10:17:57.937500,109.59
2019-08-01 10:17:57.953125,115.4
2019-08-01 10:17:57.968750,120.48
2019-08-01 10:17:57.984375,126.0
2019-08-01 10:17:58.000000,133.05
2019-08-01 10:17:58.015625,142.23
2019-08-01 10:17:58.031250,153.51
2019-08-01 10:17:58.046875,166.35
2019-08-01 10:17:58.062500,180.08
2019-08-01 10:17:58.078125,194.61
2019-08-01 10:17:58.093750,210.33
2019-08-01 10:17:58.109375,228.13
2019-08-01 10:17:58.125000,249.26
2019-08-01 10:17:58.140625,275.04
2019-08-01 10:17:58.156250,306.62
2019-08-01 10:17:58.171875,344.73
2019-08-01 10:17:58.187500,389.0
2019-08-01 10:17:58.203125,437.41
2019-08-01 10:17:58.218750,486.14
2019-08-01 10:17:58.234375,529.87
2019-08-01 10:17:58.250000,562.91
2019-08-01 10:17:58.265625,580.72
2019-08-01 10:17:58.281250,580.96
2019-08-01 10:17:58.296875,563.65
2019-08-01 10:17:58.312500,530.55
2019-08-01 10:17:58.328125,484.14
2019-08-01 10:17:58.343750,427.29
2019-08-01 10:17:58.359375,363.47
2019-08-01 10:17:58.375000,297.23
2019-08-01 10:17:58.390625,234.01
2019-08-01 10:17:58.406250,179.29
2019-08-01 10:17:58.421875,137.13
2019-08-01 10:17:58.437500,108.87
2019-08-01 10:17:58.453125,92.71
2019-08-01 10:17:58.468750,84.31
2019-08-01 10:17:58.484375,77.94
2019-08-01 10:17:58.500000,67.8
2019-08-01 10:17:58.515625,49.2
2019-08-01 10:17:58.531250,19.77
2019-08-01 10:17:58.546875,-19.44
2019-08-01 10:17:58.562500,-63.75
2019-08-01 10:17:58.578125,-105.74
2019-08-01 10:17:58.593750,-137.52
2019-08-01 10:17:58.609375,-153.51
2019-08-01 10:17:58.625000,-152.48
2019-08-01 10:17:58.640625,-137.8
2019-08-01 10:17:58.656250,-115.96
2019-08-01 10:17:58.671875,-94.01
2019-08-01 10:17:58.687500,-77.35
2019-08-01 10:17:58.703125,-68.66
2019-08-01 10:17:58.718750,-68.17
2019-08-01 10:17:58.734375,-74.39
2019-08-01 10:17:58.750000,-84.96
2019-08-01 10:17:58.765625,-97.05
2019-08-01 10:17:58.781250,-107.86
2019-08-01 10:17:58.796875,-115.32
2019-08-01 10:17:58.812500,-118.84
2019-08-01 10:17:58.828125,-119.78
2019-08-01 10:17:58.843750,-120.85
2019-08-01 10:17:58.859375,-124.76
2019-08-01 10:17:58.875000,-132.88
2019-08-01 10:17:58.890625,-144.95
2019-08-01 10:17:58.906250,-159.45
2019-08-01 10:17:58.921875,-174.41
2019-08-01 10:17:58.937500,-187.96
2019-08-01 10:17:58.953125,-198.26
2019-08-01 10:17:58.968750,-203.75
2019-08-01 10:17:58.984375,-203.94
2019-08-01 10:17:59.000000,-200.65
2019-08-01 10:17:59.015625,-198.96
2019-08-01 10:17:59.031250,-206.74
2019-08-01 10:17:59.046875,-232.37
2019-08-01 10:17:59.062500,-280.97
2019-08-01 10:17:59.078125,-351.15
2019-08-01 10:17:59.093750,-433.94
2019-08-01 10:17:59.109375,-514.91
2019-08-01 10:17:59.125000,-578.72
2019-08-01 10:17:59.140625,-613.96
2019-08-01 10:17:59.156250,-616.32
2019-08-01 10:17:59.171875,-588.73
2019-08-01 10:17:59.187500,-539.03
2019-08-01 10:17:59.203125,-476.34
2019-08-01 10:17:59.218750,-408.26
2019-08-01 10:17:59.234375,-339.1
2019-08-01 10:17:59.250000,-270.24
2019-08-01 10:17:59.265625,-201.12
2019-08-01 10:17:59.281250,-130.82
2019-08-01 10:17:59.296875,-59.16
2019-08-01 10:17:59.312500,12.57
2019-08-01 10:17:59.328125,81.57
2019-08-01 10:17:59.343750,143.83
2019-08-01 10:17:59.359375,194.84
2019-08-01 10:17:59.375000,230.67
2019-08-01 10:17:59.390625,249.03
2019-08-01 10:17:59.406250,250.2
2019-08-01 10:17:59.421875,237.34
2019-08-01 10:17:59.437500,215.69
2019-08-01 10:17:59.453125,191.21
2019-08-01 10:17:59.468750,169.11
2019-08-01 10:17:59.484375,152.7
2019-08-01 10:17:59.500000,143.48
2019-08-01 10:17:59.515625,140.97
2019-08-01 10:17:59.531250,143.23
2019-08-01 10:17:59.546875,147.57
2019-08-01 10:17:59.562500,151.28
2019-08-01 10:17:59.578125,152.25
2019-08-01 10:17:59.593750,149.38
2019-08-01 10:17:59.609375,142.81
2019-08-01 10:17:59.625000,133.82
2019-08-01 10:17:59.640625,124.75
2019-08-01 10:17:59.656250,118.14
2019-08-01 10:17:59.671875,115.9
2019-08-01 10:17:59.687500,118.6
2019-08-01 10:17:59.703125,125.4
2019-08-01 10:17:59.718750,134.1
2019-08-01 10:17:59.734375,141.88
2019-08-01 10:17:59.750000,146.23
2019-08-01 10:17:59.765625,145.62
2019-08-01 10:17:59.781250,140.38
2019-08-01 10:17:59.796875,132.11
2019-08-01 10:17:59.812500,122.53
2019-08-01 10:17:59.828125,112.73
2019-08-01 10:17:59.843750,102.99
2019-08-01 10:17:59.859375,92.69
2019-08-01 10:17:59.875000,80.37
2019-08-01 10:17:59.890625,64.28
2019-08-01 10:17:59.906250,42.92
2019-08-01 10:17:59.921875,17.19
2019-08-01 10:17:59.937500,-11.49
2019-08-01 10:17:59.953125,-41.96
2019-08-01 10:17:59.968750,-73.17
2019-08-01 10:17:59.984375,-102.96
2019-08-01 10:18:00.000000,-127.46
2019-08-01 10:18:00.015625,-141.76
2019-08-01 10:18:00.031250,-141.63
2019-08-01 10:18:00.046875,-125.4
2019-08-01 10:18:00.062500,-92.25
2019-08-01 10:18:00.078125,-46.55
2019-08-01 10:18:00.093750,2.37
2019-08-01 10:18:00.109375,43.96
2019-08-01 10:18:00.125000,72.01
2019-08-01 10:18:00.140625,87.49
2019-08-01 10:18:00.156250,97.09
2019-08-01 10:18:00.171875,108.75
2019-08-01 10:18:00.187500,127.52
2019-08-01 10:18:00.203125,158.36
2019-08-01 10:18:00.218750,199.93
2019-08-01 10:18:00.234375,244.87
2019-08-01 10:18:00.250000,283.92
2019-08-01 10:18:00.265625,311.59
2019-08-01 10:18:00.281250,327.92
2019-08-01 10:18:00.296875,336.11
2019-08-01 10:18:00.312500,338.99
2019-08-01 10:18:00.328125,337.93
2019-08-01 10:18:00.343750,340.45
2019-08-01 10:18:00.359375,352.89
2019-08-01 10:18:00.375000,377.48
2019-08-01 10:18:00.390625,411.65
2019-08-01 10:18:00.406250,450.39
2019-08-01 10:18:00.421875,487.52
2019-08-01 10:18:00.437500,515.84
2019-08-01 10:18:00.453125,528.01
2019-08-01 10:18:00.468750,478.84
2019-08-01 10:18:00.484375,351.48
2019-08-01 10:18:00.500000,168.39
2019-08-01 10:18:00.515625,-21.35
2019-08-01 10:18:00.531250,-177.16
2019-08-01 10:18:00.546875,-284.84
2019-08-01 10:18:00.562500,-349.79
2019-08-01 10:18:00.578125,-384.27
2019-08-01 10:18:00.593750,-400.04
2019-08-01 10:18:00.609375,-405.17
2019-08-01 10:18:00.625000,-398.55
2019-08-01 10:18:00.640625,-380.32
2019-08-01 10:18:00.656250,-355.65
2019-08-01 10:18:00.671875,-332.74
2019-08-01 10:18:00.687500,-316.64
2019-08-01 10:18:00.703125,-305.65
2019-08-01 10:18:00.718750,-293.19
2019-08-01 10:18:00.734375,-273.29
2019-08-01 10:18:00.750000,-242.13
2019-08-01 10:18:00.765625,-195.78
2019-08-01 10:18:00.781250,-137.32
2019-08-01 10:18:00.796875,-77.59
2019-08-01 10:18:00.812500,-31.31
2019-08-01 10:18:00.828125,-10.02
2019-08-01 10:18:00.843750,-17.67
2019-08-01 10:18:00.859375,-51.05
2019-08-01 10:18:00.875000,-103.67
2019-08-01 10:18:00.890625,-166.75
2019-08-01 10:18:00.906250,-228.11
2019-08-01 10:18:00.921875,-277.3
2019-08-01 10:18:00.937500,-307.69
2019-08-01 10:18:00.953125,-316.8
2019-08-01 10:18:00.968750,-304.72
2019-08-01 10:18:00.984375,-273.47
2019-08-01 10:18:01.000000,-220.74
2019-08-01 10:18:01.015625,-151.63
2019-08-01 10:18:01.031250,-74.5
2019-08-01 10:18:01.046875,2.41
2019-08-01 10:18:01.062500,70.44
2019-08-01 10:18:01.078125,120.91
2019-08-01 10:18:01.093750,146.69
2019-08-01 10:18:01.109375,144.85
2019-08-01 10:18:01.125000,118.52
2019-08-01 10:18:01.140625,76.67
2019-08-01 10:18:01.156250,30.16
2019-08-01 10:18:01.171875,-10.52
2019-08-01 10:18:01.187500,-38.65
2019-08-01 10:18:01.203125,-53.41
2019-08-01 10:18:01.218750,-58.73
2019-08-01 10:18:01.234375,-59.79
2019-08-01 10:18:01.250000,-59.42
2019-08-01 10:18:01.265625,-56.87
2019-08-01 10:18:01.281250,-49.3
2019-08-01 10:18:01.296875,-35.41
2019-08-01 10:18:01.312500,-16.11
2019-08-01 10:18:01.328125,5.16
2019-08-01 10:18:01.343750,23.96
2019-08-01 10:18:01.359375,36.98
2019-08-01 10:18:01.375000,43.44
2019-08-01 10:18:01.390625,45.2
2019-08-01 10:18:01.406250,45.27
2019-08-01 10:18:01.421875,46.19
2019-08-01 10:18:01.437500,48.19
2019-08-01 10:18:01.453125,49.73
2019-08-01 10:18:01.468750,48.47
2019-08-01 10:18:01.484375,42.52
2019-08-01 10:18:01.500000,31.5
2019-08-01 10:18:01.515625,16.67
2019-08-01 10:18:01.531250,0.44
2019-08-01 10:18:01.546875,-14.74
2019-08-01 10:18:01.562500,-27.16
2019-08-01 10:18:01.578125,-36.48
2019-08-01 10:18:01.593750,-43.12
2019-08-01 10:18:01.609375,-47.77
2019-08-01 10:18:01.625000,-51.19
2019-08-01 10:18:01.640625,-54.44
2019-08-01 10:18:01.656250,-59.52
2019-08-01 10:18:01.671875,-69.35
2019-08-01 10:18:01.687500,-86.84
2019-08-01 10:18:01.703125,-112.98
2019-08-01 10:18:01.718750,-145.36
2019-08-01 10:18:01.734375,-177.92
2019-08-01 10:18:01.750000,-202.88
2019-08-01 10:18:01.765625,-213.93
2019-08-01 10:18:01.781250,-209.24
2019-08-01 10:18:01.796875,-192.48
2019-08-01 10:18:01.812500,-171.04
2019-08-01 10:18:01.828125,-152.46
2019-08-01 10:18:01.843750,-141.1
2019-08-01 10:18:01.859375,-136.7
2019-08-01 10:18:01.875000,-135.54
2019-08-01 10:18:01.890625,-133.13
2019-08-01 10:18:01.906250,-126.92
2019-08-01 10:18:01.921875,-117.31
2019-08-01 10:18:01.937500,-106.96
2019-08-01 10:18:01.953125,-98.55
2019-08-01 10:18:01.968750,-93.05
2019-08-01 10:18:01.984375,-88.98
2019-08-01 10:18:02.000000,-83.24
2019-08-01 10:18:02.015625,-72.7
2019-08-01 10:18:02.031250,-55.77
2019-08-01 10:18:02.046875,-33.16
2019-08-01 10:18:02.062500,-7.5
2019-08-01 10:18:02.078125,17.96
2019-08-01 10:18:02.093750,40.74
2019-08-01 10:18:02.109375,59.81
2019-08-01 10:18:02.125000,75.49
2019-08-01 10:18:02.140625,88.67
2019-08-01 10:18:02.156250,100.03
2019-08-01 10:18:02.171875,109.56
2019-08-01 10:18:02.187500,116.86
2019-08-01 10:18:02.203125,121.64
2019-08-01 10:18:02.218750,124.13
2019-08-01 10:18:02.234375,125.21
2019-08-01 10:18:02.250000,126.04
2019-08-01 10:18:02.265625,127.26
2019-08-01 10:18:02.281250,128.08
2019-08-01 10:18:02.296875,125.81
2019-08-01 10:18:02.312500,116.44
2019-08-01 10:18:02.328125,96.65
2019-08-01 10:18:02.343750,66.11
2019-08-01 10:18:02.359375,28.9
2019-08-01 10:18:02.375000,-7.2
2019-08-01 10:18:02.390625,-33.4
2019-08-01 10:18:02.406250,-43.45
2019-08-01 10:18:02.421875,-35.77
2019-08-01 10:18:02.437500,-13.42
2019-08-01 10:18:02.453125,18.05
2019-08-01 10:18:02.468750,53.13
2019-08-01 10:18:02.484375,87.7
2019-08-01 10:18:02.500000,118.81
2019-08-01 10:18:02.515625,143.57
2019-08-01 10:18:02.531250,158.75
2019-08-01 10:18:02.546875,161.51
2019-08-01 10:18:02.562500,151.0
2019-08-01 10:18:02.578125,129.29
2019-08-01 10:18:02.593750,101.18
2019-08-01 10:18:02.609375,72.39
2019-08-01 10:18:02.625000,47.57
2019-08-01 10:18:02.640625,28.94
2019-08-01 10:18:02.656250,16.17
2019-08-01 10:18:02.671875,7.1
2019-08-01 10:18:02.687500,-0.98
2019-08-01 10:18:02.703125,-10.23
2019-08-01 10:18:02.718750,-21.55
2019-08-01 10:18:02.734375,-34.37
2019-08-01 10:18:02.750000,-46.94
2019-08-01 10:18:02.765625,-57.13
2019-08-01 10:18:02.781250,-63.32
2019-08-01 10:18:02.796875,-65.08
2019-08-01 10:18:02.812500,-63.16
2019-08-01 10:18:02.828125,-58.77
2019-08-01 10:18:02.843750,-52.92
2019-08-01 10:18:02.859375,-46.11
2019-08-01 10:18:02.875000,-38.58
2019-08-01 10:18:02.890625,-30.62
2019-08-01 10:18:02.906250,-22.81
2019-08-01 10:18:02.921875,-15.67
2019-08-01 10:18:02.937500,-9.2
2019-08-01 10:18:02.953125,-2.77
2019-08-01 10:18:02.968750,4.46
2019-08-01 10:18:02.984375,12.91
2019-08-01 10:18:03.000000,22.08
2019-08-01 10:18:03.015625,30.71
2019-08-01 10:18:03.031250,37.46
2019-08-01 10:18:03.046875,41.58
2019-08-01 10:18:03.062500,43.2
2019-08-01 10:18:03.078125,42.99
2019-08-01 10:18:03.093750,41.67
2019-08-01 10:18:03.109375,39.8
2019-08-01 10:18:03.125000,37.77
2019-08-01 10:18:03.140625,36.11
2019-08-01 10:18:03.156250,35.51
2019-08-01 10:18:03.171875,36.63
2019-08-01 10:18:03.187500,39.69
2019-08-01 10:18:03.203125,44.17
2019-08-01 10:18:03.218750,48.93
2019-08-01 10:18:03.234375,52.5
2019-08-01 10:18:03.250000,53.58
2019-08-01 10:18:03.265625,51.33
2019-08-01 10:18:03.281250,45.71
2019-08-01 10:18:03.296875,37.38
2019-08-01 10:18:03.312500,27.58
2019-08-01 10:18:03.328125,17.78
2019-08-01 10:18:03.343750,9.27
2019-08-01 10:18:03.359375,2.79
2019-08-01 10:18:03.375000,-1.64
2019-08-01 10:18:03.390625,-4.63
2019-08-01 10:18:03.406250,-7.13
2019-08-01 10:18:03.421875,-10.09
2019-08-01 10:18:03.437500,-14.17
2019-08-01 10:18:03.453125,-19.68
2019-08-01 10:18:03.468750,-26.49
2019-08-01 10:18:03.484375,-34.03
2019-08-01 10:18:03.500000,-41.2
2019-08-01 10:18:03.515625,-46.39
2019-08-01 10:18:03.531250,-47.79
2019-08-01 10:18:03.546875,-44.02
2019-08-01 10:18:03.562500,-34.69
2019-08-01 10:18:03.578125,-20.75
2019-08-01 10:18:03.593750,-4.36
2019-08-01 10:18:03.609375,11.84
2019-08-01 10:18:03.625000,25.55
2019-08-01 10:18:03.640625,35.45
2019-08-01 10:18:03.656250,41.43
2019-08-01 10:18:03.671875,44.24
2019-08-01 10:18:03.687500,44.97
2019-08-01 10:18:03.703125,44.55
2019-08-01 10:18:03.718750,43.51
2019-08-01 10:18:03.734375,42.03
2019-08-01 10:18:03.750000,40.15
2019-08-01 10:18:03.765625,38.0
2019-08-01 10:18:03.781250,35.82
2019-08-01 10:18:03.796875,33.88
2019-08-01 10:18:03.812500,32.32
2019-08-01 10:18:03.828125,31.09
2019-08-01 10:18:03.843750,29.98
2019-08-01 10:18:03.859375,28.82
2019-08-01 10:18:03.875000,27.5
2019-08-01 10:18:03.890625,26.09
2019-08-01 10:18:03.906250,24.73
2019-08-01 10:18:03.921875,23.5
2019-08-01 10:18:03.937500,22.41
2019-08-01 10:18:03.953125,21.37
2019-08-01 10:18:03.968750,20.3
2019-08-01 10:18:03.984375,19.12
2019-08-01 10:18:04.000000,17.79
2019-08-01 10:18:04.015625,16.3
2019-08-01 10:18:04.031250,14.66
2019-08-01 10:18:04.046875,12.9
2019-08-01 10:18:04.062500,11.1
2019-08-01 10:18:04.078125,9.41
2019-08-01 10:18:04.093750,7.85
2019-08-01 10:18:04.109375,6.38
2019-08-01 10:18:04.125000,4.74
2019-08-01 10:18:04.140625,2.65
2019-08-01 10:18:04.156250,-0.05
2019-08-01 10:18:04.171875,-3.22
2019-08-01 10:18:04.187500,-6.47
2019-08-01 10:18:04.203125,-9.35
2019-08-01 10:18:04.218750,-11.65
2019-08-01 10:18:04.234375,-13.65
2019-08-01 10:18:04.250000,-16.01
2019-08-01 10:18:04.265625,-19.44
2019-08-01 10:18:04.281250,-24.22
2019-08-01 10:18:04.296875,-29.84
2019-08-01 10:18:04.312500,-34.99
2019-08-01 10:18:04.328125,-37.98
2019-08-01 10:18:04.343750,-37.36
2019-08-01 10:18:04.359375,-32.46
2019-08-01 10:18:04.375000,-23.69
2019-08-01 10:18:04.390625,-12.35
2019-08-01 10:18:04.406250,-0.18
2019-08-01 10:18:04.421875,11.23
2019-08-01 10:18:04.437500,20.77
2019-08-01 10:18:04.453125,27.95
2019-08-01 10:18:04.468750,32.79
2019-08-01 10:18:04.484375,35.57
2019-08-01 10:18:04.500000,36.63
2019-08-01 10:18:04.515625,36.34
2019-08-01 10:18:04.531250,35.09
2019-08-01 10:18:04.546875,33.28
2019-08-01 10:18:04.562500,31.3
2019-08-01 10:18:04.578125,29.42
2019-08-01 10:18:04.593750,27.79
2019-08-01 10:18:04.609375,26.39
2019-08-01 10:18:04.625000,25.15
2019-08-01 10:18:04.640625,23.95
2019-08-01 10:18:04.656250,22.76
2019-08-01 10:18:04.671875,21.58
2019-08-01 10:18:04.687500,20.43
2019-08-01 10:18:04.703125,19.31
2019-08-01 10:18:04.718750,18.2
2019-08-01 10:18:04.734375,17.02
2019-08-01 10:18:04.750000,15.63
2019-08-01 10:18:04.765625,13.9
2019-08-01 10:18:04.781250,11.73
2019-08-01 10:18:04.796875,9.1
2019-08-01 10:18:04.812500,6.06
2019-08-01 10:18:04.828125,2.75
2019-08-01 10:18:04.843750,-0.67
2019-08-01 10:18:04.859375,-4.06
2019-08-01 10:18:04.875000,-7.3
2019-08-01 10:18:04.890625,-10.25
2019-08-01 10:18:04.906250,-12.86
2019-08-01 10:18:04.921875,-15.06
2019-08-01 10:18:04.937500,-16.91
2019-08-01 10:18:04.953125,-18.55
2019-08-01 10:18:04.968750,-20.25
2019-08-01 10:18:04.984375,-22.31
2019-08-01 10:18:05.000000,-24.97
2019-08-01 10:18:05.015625,-28.42
2019-08-01 10:18:05.031250,-32.64
2019-08-01 10:18:05.046875,-37.41
2019-08-01 10:18:05.062500,-42.19
2019-08-01 10:18:05.078125,-46.12
2019-08-01 10:18:05.093750,-48.12
2019-08-01 10:18:05.109375,-47.11
2019-08-01 10:18:05.125000,-42.42
2019-08-01 10:18:05.140625,-34.11
2019-08-01 10:18:05.156250,-23.13
2019-08-01 10:18:05.171875,-11.06
2019-08-01 10:18:05.187500,0.32
2019-08-01 10:18:05.203125,9.58
2019-08-01 10:18:05.218750,16.01
2019-08-01 10:18:05.234375,19.71
2019-08-01 10:18:05.250000,21.31
2019-08-01 10:18:05.265625,21.62
2019-08-01 10:18:05.281250,21.35
2019-08-01 10:18:05.296875,20.91
2019-08-01 10:18:05.312500,20.51
2019-08-01 10:18:05.328125,20.24
2019-08-01 10:18:05.343750,20.17
2019-08-01 10:18:05.359375,20.39
2019-08-01 10:18:05.375000,20.92
2019-08-01 10:18:05.390625,21.71
2019-08-01 10:18:05.406250,22.61
2019-08-01 10:18:05.421875,23.43
2019-08-01 10:18:05.437500,24.09
2019-08-01 10:18:05.453125,24.58
2019-08-01 10:18:05.468750,24.99
2019-08-01 10:18:05.484375,25.4
2019-08-01 10:18:05.500000,25.75
2019-08-01 10:18:05.515625,25.78
2019-08-01 10:18:05.531250,25.15
2019-08-01 10:18:05.546875,23.53
2019-08-01 10:18:05.562500,20.78
2019-08-01 10:18:05.578125,17.05
2019-08-01 10:18:05.593750,12.76
2019-08-01 10:18:05.609375,8.42
2019-08-01 10:18:05.625000,4.4
2019-08-01 10:18:05.640625,0.85
2019-08-01 10:18:05.656250,-2.37
2019-08-01 10:18:05.671875,-5.52
2019-08-01 10:18:05.687500,-8.79
2019-08-01 10:18:05.703125,-12.15
2019-08-01 10:18:05.718750,-15.27
2019-08-01 10:18:05.734375,-17.75
2019-08-01 10:18:05.750000,-19.28
2019-08-01 10:18:05.765625,-19.86
2019-08-01 10:18:05.781250,-19.85
2019-08-01 10:18:05.796875,-19.88
2019-08-01 10:18:05.812500,-20.58
2019-08-01 10:18:05.828125,-22.49
2019-08-01 10:18:05.843750,-25.76
2019-08-01 10:18:05.859375,-30.18
2019-08-01 10:18:05.875000,-35.07
2019-08-01 10:18:05.890625,-39.35
2019-08-01 10:18:05.906250,-41.71
2019-08-01 10:18:05.921875,-40.99
2019-08-01 10:18:05.937500,-36.46
2019-08-01 10:18:05.953125,-28.19
2019-08-01 10:18:05.968750,-17.07
2019-08-01 10:18:05.984375,-4.62
2019-08-01 10:18:06.000000,7.41
2019-08-01 10:18:06.015625,17.59
2019-08-01 10:18:06.031250,25.1
2019-08-01 10:18:06.046875,29.81
2019-08-01 10:18:06.062500,32.11
2019-08-01 10:18:06.078125,32.66
2019-08-01 10:18:06.093750,32.08
2019-08-01 10:18:06.109375,30.89
2019-08-01 10:18:06.125000,29.39
2019-08-01 10:18:06.140625,27.78
2019-08-01 10:18:06.156250,26.16
2019-08-01 10:18:06.171875,24.53
2019-08-01 10:18:06.187500,22.87
2019-08-01 10:18:06.203125,21.13
2019-08-01 10:18:06.218750,19.29
2019-08-01 10:18:06.234375,17.39
2019-08-01 10:18:06.250000,15.55
2019-08-01 10:18:06.265625,13.96
2019-08-01 10:18:06.281250,12.84
2019-08-01 10:18:06.296875,12.35
2019-08-01 10:18:06.312500,12.57
2019-08-01 10:18:06.328125,13.4
2019-08-01 10:18:06.343750,14.52
2019-08-01 10:18:06.359375,15.5
2019-08-01 10:18:06.375000,15.86
2019-08-01 10:18:06.390625,15.31
2019-08-01 10:18:06.406250,13.81
2019-08-01 10:18:06.421875,11.61
2019-08-01 10:18:06.437500,9.09
2019-08-01 10:18:06.453125,6.62
2019-08-01 10:18:06.468750,4.36
2019-08-01 10:18:06.484375,2.2
2019-08-01 10:18:06.500000,-0.13
2019-08-01 10:18:06.515625,-2.88
2019-08-01 10:18:06.531250,-6.16
2019-08-01 10:18:06.546875,-9.78
2019-08-01 10:18:06.562500,-13.38
2019-08-01 10:18:06.578125,-16.51
2019-08-01 10:18:06.593750,-18.84
2019-08-01 10:18:06.609375,-20.28
2019-08-01 10:18:06.625000,-21.02
2019-08-01 10:18:06.640625,-21.45
2019-08-01 10:18:06.656250,-22.1
2019-08-01 10:18:06.671875,-23.45
2019-08-01 10:18:06.687500,-25.84
2019-08-01 10:18:06.703125,-29.29
2019-08-01 10:18:06.718750,-33.39
2019-08-01 10:18:06.734375,-37.26
2019-08-01 10:18:06.750000,-39.75
2019-08-01 10:18:06.765625,-39.69
2019-08-01 10:18:06.781250,-36.32
2019-08-01 10:18:06.796875,-29.65
2019-08-01 10:18:06.812500,-20.49
2019-08-01 10:18:06.828125,-10.23
2019-08-01 10:18:06.843750,-0.46
2019-08-01 10:18:06.859375,7.57
2019-08-01 10:18:06.875000,13.2
2019-08-01 10:18:06.890625,16.38
2019-08-01 10:18:06.906250,17.48
2019-08-01 10:18:06.921875,17.04
2019-08-01 10:18:06.937500,15.57
2019-08-01 10:18:06.953125,13.5
2019-08-01 10:18:06.968750,11.24
2019-08-01 10:18:06.984375,9.17
2019-08-01 10:18:07.000000,7.6
2019-08-01 10:18:07.015625,6.77
2019-08-01 10:18:07.031250,6.7
2019-08-01 10:18:07.046875,7.26
2019-08-01 10:18:07.062500,8.12
2019-08-01 10:18:07.078125,9.0
2019-08-01 10:18:07.093750,9.7
2019-08-01 10:18:07.109375,10.21
2019-08-01 10:18:07.125000,10.62
2019-08-01 10:18:07.140625,11.09
2019-08-01 10:18:07.156250,11.69
2019-08-01 10:18:07.171875,12.33
2019-08-01 10:18:07.187500,12.8
2019-08-01 10:18:07.203125,12.8
2019-08-01 10:18:07.218750,12.13
2019-08-01 10:18:07.234375,10.7
2019-08-01 10:18:07.250000,8.66
2019-08-01 10:18:07.265625,6.26
2019-08-01 10:18:07.281250,3.82
2019-08-01 10:18:07.296875,1.56
2019-08-01 10:18:07.312500,-0.48
2019-08-01 10:18:07.328125,-2.43
2019-08-01 10:18:07.343750,-4.46
2019-08-01 10:18:07.359375,-6.71
2019-08-01 10:18:07.375000,-9.13
2019-08-01 10:18:07.390625,-11.48
2019-08-01 10:18:07.406250,-13.5
2019-08-01 10:18:07.421875,-14.98
2019-08-01 10:18:07.437500,-15.95
2019-08-01 10:18:07.453125,-16.74
2019-08-01 10:18:07.468750,-17.78
2019-08-01 10:18:07.484375,-19.53
2019-08-01 10:18:07.500000,-22.2
2019-08-01 10:18:07.515625,-25.67
2019-08-01 10:18:07.531250,-29.38
2019-08-01 10:18:07.546875,-32.48
2019-08-01 10:18:07.562500,-33.9
2019-08-01 10:18:07.578125,-32.64
2019-08-01 10:18:07.593750,-27.99
2019-08-01 10:18:07.609375,-19.83
2019-08-01 10:18:07.625000,-8.79
2019-08-01 10:18:07.640625,3.84
2019-08-01 10:18:07.656250,16.39
2019-08-01 10:18:07.671875,27.31
2019-08-01 10:18:07.687500,35.51
2019-08-01 10:18:07.703125,40.64
2019-08-01 10:18:07.718750,42.97
2019-08-01 10:18:07.734375,43.18
2019-08-01 10:18:07.750000,42.04
2019-08-01 10:18:07.765625,40.22
2019-08-01 10:18:07.781250,38.27
2019-08-01 10:18:07.796875,36.64
2019-08-01 10:18:07.812500,35.73
2019-08-01 10:18:07.828125,35.76
2019-08-01 10:18:07.843750,36.81
2019-08-01 10:18:07.859375,38.8
2019-08-01 10:18:07.875000,41.5
2019-08-01 10:18:07.890625,44.76
2019-08-01 10:18:07.906250,48.52
2019-08-01 10:18:07.921875,52.85
2019-08-01 10:18:07.937500,57.82
2019-08-01 10:18:07.953125,63.3
2019-08-01 10:18:07.968750,68.88
2019-08-01 10:18:07.984375,73.92
2019-08-01 10:18:08.000000,77.71
2019-08-01 10:18:08.015625,79.81
2019-08-01 10:18:08.031250,80.21
2019-08-01 10:18:08.046875,79.28
2019-08-01 10:18:08.062500,77.51
2019-08-01 10:18:08.078125,74.94
2019-08-01 10:18:08.093750,70.95
2019-08-01 10:18:08.109375,64.33
2019-08-01 10:18:08.125000,53.67
2019-08-01 10:18:08.140625,38.12
2019-08-01 10:18:08.156250,17.91
2019-08-01 10:18:08.171875,-5.53
2019-08-01 10:18:08.187500,-30.02
2019-08-01 10:18:08.203125,-52.97
2019-08-01 10:18:08.218750,-71.45
2019-08-01 10:18:08.234375,-82.06
2019-08-01 10:18:08.250000,-81.03
2019-08-01 10:18:08.265625,-65.47
2019-08-01 10:18:08.281250,-34.31
2019-08-01 10:18:08.296875,10.43
2019-08-01 10:18:08.312500,63.21
2019-08-01 10:18:08.328125,115.7
2019-08-01 10:18:08.343750,158.94
2019-08-01 10:18:08.359375,185.93
2019-08-01 10:18:08.375000,193.97
2019-08-01 10:18:08.390625,185.43
2019-08-01 10:18:08.406250,166.13
2019-08-01 10:18:08.421875,143.7
2019-08-01 10:18:08.437500,125.59
2019-08-01 10:18:08.453125,117.89
2019-08-01 10:18:08.468750,124.78
2019-08-01 10:18:08.484375,148.38
2019-08-01 10:18:08.500000,187.97
2019-08-01 10:18:08.515625,239.63
2019-08-01 10:18:08.531250,295.87
2019-08-01 10:18:08.546875,345.87
2019-08-01 10:18:08.562500,378.96
2019-08-01 10:18:08.578125,388.3
2019-08-01 10:18:08.593750,373.29
2019-08-01 10:18:08.609375,339.38
2019-08-01 10:18:08.625000,295.79
2019-08-01 10:18:08.640625,251.23
2019-08-01 10:18:08.656250,211.47
2019-08-01 10:18:08.671875,178.17
2019-08-01 10:18:08.687500,147.41
2019-08-01 10:18:08.703125,114.86
2019-08-01 10:18:08.718750,79.1
2019-08-01 10:18:08.734375,42.2
2019-08-01 10:18:08.750000,7.28
2019-08-01 10:18:08.765625,-23.18
2019-08-01 10:18:08.781250,-50.41
2019-08-01 10:18:08.796875,-76.93
2019-08-01 10:18:08.812500,-105.35
2019-08-01 10:18:08.828125,-142.02
2019-08-01 10:18:08.843750,-190.27
2019-08-01 10:18:08.859375,-247.33
2019-08-01 10:18:08.875000,-305.45
2019-08-01 10:18:08.890625,-356.46
2019-08-01 10:18:08.906250,-393.84
2019-08-01 10:18:08.921875,-418.12
2019-08-01 10:18:08.937500,-431.91
2019-08-01 10:18:08.953125,-438.81
2019-08-01 10:18:08.968750,-450.05
2019-08-01 10:18:08.984375,-474.48
2019-08-01 10:18:09.000000,-513.18
2019-08-01 10:18:09.015625,-559.61
2019-08-01 10:18:09.031250,-605.07
2019-08-01 10:18:09.046875,-639.97
2019-08-01 10:18:09.062500,-661.85
2019-08-01 10:18:09.078125,-668.91
2019-08-01 10:18:09.093750,-660.77
2019-08-01 10:18:09.109375,-649.44
2019-08-01 10:18:09.125000,-647.78
2019-08-01 10:18:09.140625,-661.97
2019-08-01 10:18:09.156250,-690.02
2019-08-01 10:18:09.171875,-726.56
2019-08-01 10:18:09.187500,-763.17
2019-08-01 10:18:09.203125,-798.59
2019-08-01 10:18:09.218750,-830.67
2019-08-01 10:18:09.234375,-793.49
2019-08-01 10:18:09.250000,-651.65
2019-08-01 10:18:09.265625,-422.97
2019-08-01 10:18:09.281250,-168.25
2019-08-01 10:18:09.296875,56.29
2019-08-01 10:18:09.312500,204.11
2019-08-01 10:18:09.328125,298.61
2019-08-01 10:18:09.343750,359.59
2019-08-01 10:18:09.359375,398.43
2019-08-01 10:18:09.375000,419.18
2019-08-01 10:18:09.390625,419.14
2019-08-01 10:18:09.406250,394.96
2019-08-01 10:18:09.421875,352.43
2019-08-01 10:18:09.437500,304.99
2019-08-01 10:18:09.453125,264.68
2019-08-01 10:18:09.468750,239.72
2019-08-01 10:18:09.484375,225.49
2019-08-01 10:18:09.500000,224.3
2019-08-01 10:18:09.515625,236.15
2019-08-01 10:18:09.531250,251.65
2019-08-01 10:18:09.546875,260.94
2019-08-01 10:18:09.562500,260.61
2019-08-01 10:18:09.578125,254.41
2019-08-01 10:18:09.593750,247.92
2019-08-01 10:18:09.609375,247.2
2019-08-01 10:18:09.625000,251.03
2019-08-01 10:18:09.640625,257.89
2019-08-01 10:18:09.656250,265.6
2019-08-01 10:18:09.671875,267.66
2019-08-01 10:18:09.687500,259.06
2019-08-01 10:18:09.703125,240.2
2019-08-01 10:18:09.718750,216.49
2019-08-01 10:18:09.734375,194.2
2019-08-01 10:18:09.750000,179.16
2019-08-01 10:18:09.765625,171.36
2019-08-01 10:18:09.781250,169.33
2019-08-01 10:18:09.796875,170.38
2019-08-01 10:18:09.812500,169.67
2019-08-01 10:18:09.828125,163.43
2019-08-01 10:18:09.843750,151.11
2019-08-01 10:18:09.859375,135.04
2019-08-01 10:18:09.875000,118.18
2019-08-01 10:18:09.890625,103.52
2019-08-01 10:18:09.906250,91.3
2019-08-01 10:18:09.921875,81.34
2019-08-01 10:18:09.937500,73.0
2019-08-01 10:18:09.953125,64.92
2019-08-01 10:18:09.968750,55.83
2019-08-01 10:18:09.984375,45.09
2019-08-01 10:18:10.000000,32.89
2019-08-01 10:18:10.015625,19.89
2019-08-01 10:18:10.031250,7.95
2019-08-01 10:18:10.046875,-0.54
2019-08-01 10:18:10.062500,-2.19
2019-08-01 10:18:10.078125,6.01
2019-08-01 10:18:10.093750,25.43
2019-08-01 10:18:10.109375,54.84
2019-08-01 10:18:10.125000,90.7
2019-08-01 10:18:10.140625,128.14
2019-08-01 10:18:10.156250,162.12
2019-08-01 10:18:10.171875,188.41
2019-08-01 10:18:10.187500,203.02
2019-08-01 10:18:10.203125,201.62
2019-08-01 10:18:10.218750,181.21
2019-08-01 10:18:10.234375,141.29
2019-08-01 10:18:10.250000,84.6
2019-08-01 10:18:10.265625,17.18
2019-08-01 10:18:10.281250,-52.82
2019-08-01 10:18:10.296875,-117.21
2019-08-01 10:18:10.312500,-170.03
2019-08-01 10:18:10.328125,-209.0
2019-08-01 10:18:10.343750,-235.39
2019-08-01 10:18:10.359375,-252.47
2019-08-01 10:18:10.375000,-264.06
2019-08-01 10:18:10.390625,-272.89
2019-08-01 10:18:10.406250,-280.01
2019-08-01 10:18:10.421875,-284.93
2019-08-01 10:18:10.437500,-286.35
2019-08-01 10:18:10.453125,-283.0
2019-08-01 10:18:10.468750,-274.24
2019-08-01 10:18:10.484375,-260.22
2019-08-01 10:18:10.500000,-241.65
2019-08-01 10:18:10.515625,-219.71
2019-08-01 10:18:10.531250,-195.87
2019-08-01 10:18:10.546875,-171.69
2019-08-01 10:18:10.562500,-148.66
2019-08-01 10:18:10.578125,-128.12
2019-08-01 10:18:10.593750,-111.13
2019-08-01 10:18:10.609375,-98.28
2019-08-01 10:18:10.625000,-89.62
2019-08-01 10:18:10.640625,-84.55
2019-08-01 10:18:10.656250,-82.24
2019-08-01 10:18:10.671875,-81.84
2019-08-01 10:18:10.687500,-82.8
2019-08-01 10:18:10.703125,-84.65
2019-08-01 10:18:10.718750,-86.74
2019-08-01 10:18:10.734375,-87.91
2019-08-01 10:18:10.750000,-86.42
2019-08-01 10:18:10.765625,-80.4
2019-08-01 10:18:10.781250,-68.56
2019-08-01 10:18:10.796875,-51.02
2019-08-01 10:18:10.812500,-29.54
2019-08-01 10:18:10.828125,-7.07
2019-08-01 10:18:10.843750,13.22
2019-08-01 10:18:10.859375,29.06
2019-08-01 10:18:10.875000,39.84
2019-08-01 10:18:10.890625,46.53
2019-08-01 10:18:10.906250,51.1
2019-08-01 10:18:10.921875,55.55
2019-08-01 10:18:10.937500,61.09
2019-08-01 10:18:10.953125,67.86
2019-08-01 10:18:10.968750,75.18
2019-08-01 10:18:10.984375,82.08
2019-08-01 10:18:11.000000,87.79
2019-08-01 10:18:11.015625,91.99
2019-08-01 10:18:11.031250,94.69
2019-08-01 10:18:11.046875,96.01
2019-08-01 10:18:11.062500,95.98
2019-08-01 10:18:11.078125,94.55
2019-08-01 10:18:11.093750,91.71
2019-08-01 10:18:11.109375,87.57
2019-08-01 10:18:11.125000,82.33
2019-08-01 10:18:11.140625,76.03
2019-08-01 10:18:11.156250,68.31
2019-08-01 10:18:11.171875,58.39
2019-08-01 10:18:11.187500,45.48
2019-08-01 10:18:11.203125,29.31
2019-08-01 10:18:11.218750,10.68
2019-08-01 10:18:11.234375,-8.53
2019-08-01 10:18:11.250000,-25.79
2019-08-01 10:18:11.265625,-38.78
2019-08-01 10:18:11.281250,-46.12
2019-08-01 10:18:11.296875,-47.83
2019-08-01 10:18:11.312500,-45.11
2019-08-01 10:18:11.328125,-39.71
2019-08-01 10:18:11.343750,-33.22
2019-08-01 10:18:11.359375,-26.68
2019-08-01 10:18:11.375000,-20.45
2019-08-01 10:18:11.390625,-14.43
2019-08-01 10:18:11.406250,-8.37
2019-08-01 10:18:11.421875,-1.96
2019-08-01 10:18:11.437500,5.03
2019-08-01 10:18:11.453125,12.77
2019-08-01 10:18:11.468750,21.08
2019-08-01 10:18:11.484375,29.22
2019-08-01 10:18:11.500000,35.78
2019-08-01 10:18:11.515625,38.89
2019-08-01 10:18:11.531250,36.85
2019-08-01 10:18:11.546875,28.86
2019-08-01 10:18:11.562500,15.55
2019-08-01 10:18:11.578125,-0.96
2019-08-01 10:18:11.593750,-17.52
2019-08-01 10:18:11.609375,-30.93
2019-08-01 10:18:11.625000,-38.85
2019-08-01 10:18:11.640625,-40.46
2019-08-01 10:18:11.656250,-36.53
2019-08-01 10:18:11.671875,-28.97
2019-08-01 10:18:11.687500,-20.1
2019-08-01 10:18:11.703125,-11.76
2019-08-01 10:18:11.718750,-4.83
2019-08-01 10:18:11.734375,0.98
2019-08-01 10:18:11.750000,6.77
2019-08-01 10:18:11.765625,13.76
2019-08-01 10:18:11.781250,22.47
2019-08-01 10:18:11.796875,32.36
2019-08-01 10:18:11.812500,41.82
2019-08-01 10:18:11.828125,48.86
2019-08-01 10:18:11.843750,51.94
2019-08-01 10:18:11.859375,50.54
2019-08-01 10:18:11.875000,45.36
2019-08-01 10:18:11.890625,37.95
2019-08-01 10:18:11.906250,30.11
2019-08-01 10:18:11.921875,23.5
2019-08-01 10:18:11.937500,19.39
2019-08-01 10:18:11.953125,18.57
2019-08-01 10:18:11.968750,21.32
2019-08-01 10:18:11.984375,27.2
2019-08-01 10:18:12.000000,34.91
2019-08-01 10:18:12.015625,42.52
2019-08-01 10:18:12.031250,47.89
2019-08-01 10:18:12.046875,49.49
2019-08-01 10:18:12.062500,46.9
2019-08-01 10:18:12.078125,40.96
2019-08-01 10:18:12.093750,33.32
2019-08-01 10:18:12.109375,25.83
2019-08-01 10:18:12.125000,19.97
2019-08-01 10:18:12.140625,16.72
2019-08-01 10:18:12.156250,16.63
2019-08-01 10:18:12.171875,19.87
2019-08-01 10:18:12.187500,26.23
2019-08-01 10:18:12.203125,34.96
2019-08-01 10:18:12.218750,44.67
2019-08-01 10:18:12.234375,53.46
2019-08-01 10:18:12.250000,59.33
2019-08-01 10:18:12.265625,60.71
2019-08-01 10:18:12.281250,56.85
2019-08-01 10:18:12.296875,48.03
2019-08-01 10:18:12.312500,35.38
2019-08-01 10:18:12.328125,20.56
2019-08-01 10:18:12.343750,5.36
2019-08-01 10:18:12.359375,-8.7
2019-08-01 10:18:12.375000,-20.46
2019-08-01 10:18:12.390625,-29.26
2019-08-01 10:18:12.406250,-34.82
2019-08-01 10:18:12.421875,-37.25
2019-08-01 10:18:12.437500,-36.99
2019-08-01 10:18:12.453125,-34.95
2019-08-01 10:18:12.468750,-32.4
2019-08-01 10:18:12.484375,-30.89
2019-08-01 10:18:12.500000,-31.88
2019-08-01 10:18:12.515625,-36.28
2019-08-01 10:18:12.531250,-44.08
2019-08-01 10:18:12.546875,-54.16
2019-08-01 10:18:12.562500,-64.54
2019-08-01 10:18:12.578125,-72.84
2019-08-01 10:18:12.593750,-76.94
2019-08-01 10:18:12.609375,-75.49
2019-08-01 10:18:12.625000,-68.29
2019-08-01 10:18:12.640625,-56.31
2019-08-01 10:18:12.656250,-41.37
2019-08-01 10:18:12.671875,-25.61
2019-08-01 10:18:12.687500,-10.87
2019-08-01 10:18:12.703125,1.73
2019-08-01 10:18:12.718750,12.03
2019-08-01 10:18:12.734375,20.47
2019-08-01 10:18:12.750000,27.74
2019-08-01 10:18:12.765625,34.29
2019-08-01 10:18:12.781250,40.15
2019-08-01 10:18:12.796875,44.99
2019-08-01 10:18:12.812500,48.55
2019-08-01 10:18:12.828125,50.79
2019-08-01 10:18:12.843750,52.0
2019-08-01 10:18:12.859375,52.66
2019-08-01 10:18:12.875000,53.19
2019-08-01 10:18:12.890625,53.82
2019-08-01 10:18:12.906250,54.54
2019-08-01 10:18:12.921875,55.22
2019-08-01 10:18:12.937500,55.77
2019-08-01 10:18:12.953125,56.17
2019-08-01 10:18:12.968750,56.49
2019-08-01 10:18:12.984375,56.81
2019-08-01 10:18:13.000000,57.14
2019-08-01 10:18:13.015625,57.35
2019-08-01 10:18:13.031250,57.2
2019-08-01 10:18:13.046875,56.45
2019-08-01 10:18:13.062500,55.06
2019-08-01 10:18:13.078125,53.16
2019-08-01 10:18:13.093750,51.1
2019-08-01 10:18:13.109375,49.23
2019-08-01 10:18:13.125000,47.73
2019-08-01 10:18:13.140625,46.49
2019-08-01 10:18:13.156250,45.16
2019-08-01 10:18:13.171875,43.35
2019-08-01 10:18:13.187500,40.8
2019-08-01 10:18:13.203125,37.44
2019-08-01 10:18:13.218750,33.38
2019-08-01 10:18:13.234375,28.84
2019-08-01 10:18:13.250000,24.06
2019-08-01 10:18:13.265625,19.3
2019-08-01 10:18:13.281250,14.81
2019-08-01 10:18:13.296875,10.68
2019-08-01 10:18:13.312500,6.75
2019-08-01 10:18:13.328125,2.56
2019-08-01 10:18:13.343750,-2.43
2019-08-01 10:18:13.359375,-8.55
2019-08-01 10:18:13.375000,-15.53
2019-08-01 10:18:13.390625,-22.39
2019-08-01 10:18:13.406250,-27.6
2019-08-01 10:18:13.421875,-29.68
2019-08-01 10:18:13.437500,-27.68
2019-08-01 10:18:13.453125,-21.61
2019-08-01 10:18:13.468750,-12.48
2019-08-01 10:18:13.484375,-1.88
2019-08-01 10:18:13.500000,8.45
2019-08-01 10:18:13.515625,17.14
2019-08-01 10:18:13.531250,23.51
2019-08-01 10:18:13.546875,27.58
2019-08-01 10:18:13.562500,29.82
2019-08-01 10:18:13.578125,30.83
2019-08-01 10:18:13.593750,31.1
2019-08-01 10:18:13.609375,30.92
2019-08-01 10:18:13.625000,30.44
2019-08-01 10:18:13.640625,29.82
2019-08-01 10:18:13.656250,29.25
2019-08-01 10:18:13.671875,28.96
2019-08-01 10:18:13.687500,29.07
2019-08-01 10:18:13.703125,29.53
2019-08-01 10:18:13.718750,30.05
2019-08-01 10:18:13.734375,30.32
2019-08-01 10:18:13.750000,30.05
2019-08-01 10:18:13.765625,29.19
2019-08-01 10:18:13.781250,27.97
2019-08-01 10:18:13.796875,26.76
2019-08-01 10:18:13.812500,25.99
2019-08-01 10:18:13.828125,25.9
2019-08-01 10:18:13.843750,26.37
2019-08-01 10:18:13.859375,26.96
2019-08-01 10:18:13.875000,27.02
2019-08-01 10:18:13.890625,25.96
2019-08-01 10:18:13.906250,23.56
2019-08-01 10:18:13.921875,20.12
2019-08-01 10:18:13.937500,16.39
2019-08-01 10:18:13.953125,13.26
2019-08-01 10:18:13.968750,11.3
2019-08-01 10:18:13.984375,10.47
2019-08-01 10:18:14.000000,10.09
2019-08-01 10:18:14.015625,9.14
2019-08-01 10:18:14.031250,6.75
2019-08-01 10:18:14.046875,2.6
2019-08-01 10:18:14.062500,-2.87
2019-08-01 10:18:14.078125,-8.84
2019-08-01 10:18:14.093750,-14.48
2019-08-01 10:18:14.109375,-19.46
2019-08-01 10:18:14.125000,-24.11
2019-08-01 10:18:14.140625,-29.14
2019-08-01 10:18:14.156250,-35.07
2019-08-01 10:18:14.171875,-41.65
2019-08-01 10:18:14.187500,-47.65
2019-08-01 10:18:14.203125,-51.15
2019-08-01 10:18:14.218750,-50.32
2019-08-01 10:18:14.234375,-44.06
2019-08-01 10:18:14.250000,-32.46
2019-08-01 10:18:14.265625,-16.68
2019-08-01 10:18:14.281250,1.54
2019-08-01 10:18:14.296875,20.29
2019-08-01 10:18:14.312500,37.66
2019-08-01 10:18:14.328125,51.71
2019-08-01 10:18:14.343750,60.49
2019-08-01 10:18:14.359375,62.41
2019-08-01 10:18:14.375000,56.98
2019-08-01 10:18:14.390625,45.47
2019-08-01 10:18:14.406250,30.95
2019-08-01 10:18:14.421875,17.5
2019-08-01 10:18:14.437500,8.71
2019-08-01 10:18:14.453125,6.17
2019-08-01 10:18:14.468750,8.88
2019-08-01 10:18:14.484375,13.83
2019-08-01 10:18:14.500000,17.65
2019-08-01 10:18:14.515625,18.41
2019-08-01 10:18:14.531250,16.71
2019-08-01 10:18:14.546875,15.17
2019-08-01 10:18:14.562500,16.87
2019-08-01 10:18:14.578125,23.42
2019-08-01 10:18:14.593750,33.96
2019-08-01 10:18:14.609375,45.56
2019-08-01 10:18:14.625000,54.85
2019-08-01 10:18:14.640625,59.85
2019-08-01 10:18:14.656250,60.82
2019-08-01 10:18:14.671875,59.69
2019-08-01 10:18:14.687500,58.49
2019-08-01 10:18:14.703125,57.83
2019-08-01 10:18:14.718750,56.28
2019-08-01 10:18:14.734375,51.23
2019-08-01 10:18:14.750000,40.33
2019-08-01 10:18:14.765625,22.87
2019-08-01 10:18:14.781250,0.15
2019-08-01 10:18:14.796875,-25.16
2019-08-01 10:18:14.812500,-50.2
2019-08-01 10:18:14.828125,-72.79
2019-08-01 10:18:14.843750,-91.77
2019-08-01 10:18:14.859375,-106.59
2019-08-01 10:18:14.875000,-116.83
2019-08-01 10:18:14.890625,-122.0
2019-08-01 10:18:14.906250,-121.68
2019-08-01 10:18:14.921875,-116.05
2019-08-01 10:18:14.937500,-106.26
2019-08-01 10:18:14.953125,-94.36
2019-08-01 10:18:14.968750,-82.72
2019-08-01 10:18:14.984375,-73.21
2019-08-01 10:18:15.000000,-66.51
2019-08-01 10:18:15.015625,-62.09
2019-08-01 10:18:15.031250,-58.62
2019-08-01 10:18:15.046875,-54.8
2019-08-01 10:18:15.062500,-49.98
2019-08-01 10:18:15.078125,-44.18
2019-08-01 10:18:15.093750,-37.76
2019-08-01 10:18:15.109375,-30.82
2019-08-01 10:18:15.125000,-23.1
2019-08-01 10:18:15.140625,-14.2
2019-08-01 10:18:15.156250,-4.19
2019-08-01 10:18:15.171875,5.96
2019-08-01 10:18:15.187500,14.57
2019-08-01 10:18:15.203125,19.82
2019-08-01 10:18:15.218750,20.73
2019-08-01 10:18:15.234375,17.58
2019-08-01 10:18:15.250000,11.85
2019-08-01 10:18:15.265625,5.49
2019-08-01 10:18:15.281250,0.15
2019-08-01 10:18:15.296875,-3.3
2019-08-01 10:18:15.312500,-4.71
2019-08-01 10:18:15.328125,-4.27
2019-08-01 10:18:15.343750,-2.04
2019-08-01 10:18:15.359375,2.18
2019-08-01 10:18:15.375000,8.65
2019-08-01 10:18:15.390625,17.22
2019-08-01 10:18:15.406250,27.08
2019-08-01 10:18:15.421875,36.71
2019-08-01 10:18:15.437500,44.3
2019-08-01 10:18:15.453125,48.26
2019-08-01 10:18:15.468750,47.65
2019-08-01 10:18:15.484375,42.31
2019-08-01 10:18:15.500000,32.8
2019-08-01 10:18:15.515625,20.23
2019-08-01 10:18:15.531250,6.03
2019-08-01 10:18:15.546875,-8.08
2019-08-01 10:18:15.562500,-20.27
2019-08-01 10:18:15.578125,-28.73
2019-08-01 10:18:15.593750,-32.02
2019-08-01 10:18:15.609375,-29.53
2019-08-01 10:18:15.625000,-21.86
2019-08-01 10:18:15.640625,-10.87
2019-08-01 10:18:15.656250,0.67
2019-08-01 10:18:15.671875,9.8
2019-08-01 10:18:15.687500,14.29
2019-08-01 10:18:15.703125,13.25
2019-08-01 10:18:15.718750,7.15
2019-08-01 10:18:15.734375,-2.46
2019-08-01 10:18:15.750000,-13.63
2019-08-01 10:18:15.765625,-24.43
2019-08-01 10:18:15.781250,-33.15
2019-08-01 10:18:15.796875,-38.25
2019-08-01 10:18:15.812500,-38.36
2019-08-01 10:18:15.828125,-32.57
2019-08-01 10:18:15.843750,-20.82
2019-08-01 10:18:15.859375,-4.32
2019-08-01 10:18:15.875000,14.59
2019-08-01 10:18:15.890625,32.92
2019-08-01 10:18:15.906250,47.92
2019-08-01 10:18:15.921875,57.78
2019-08-01 10:18:15.937500,62.02
2019-08-01 10:18:15.953125,61.24
2019-08-01 10:18:15.968750,56.65
2019-08-01 10:18:15.984375,49.58
2019-08-01 10:18:16.000000,41.13
2019-08-01 10:18:16.015625,32.23
2019-08-01 10:18:16.031250,23.78
2019-08-01 10:18:16.046875,16.84
2019-08-01 10:18:16.062500,12.65
2019-08-01 10:18:16.078125,12.43
2019-08-01 10:18:16.093750,17.08
2019-08-01 10:18:16.109375,26.79
2019-08-01 10:18:16.125000,40.83
2019-08-01 10:18:16.140625,57.43
2019-08-01 10:18:16.156250,73.99
2019-08-01 10:18:16.171875,87.63
2019-08-01 10:18:16.187500,95.85
2019-08-01 10:18:16.203125,97.1
2019-08-01 10:18:16.218750,91.15
2019-08-01 10:18:16.234375,79.06
2019-08-01 10:18:16.250000,62.7
2019-08-01 10:18:16.265625,44.19
2019-08-01 10:18:16.281250,25.31
2019-08-01 10:18:16.296875,7.26
2019-08-01 10:18:16.312500,-9.39
2019-08-01 10:18:16.328125,-24.38
2019-08-01 10:18:16.343750,-37.62
2019-08-01 10:18:16.359375,-49.0
2019-08-01 10:18:16.375000,-58.43
2019-08-01 10:18:16.390625,-65.81
2019-08-01 10:18:16.406250,-70.96
2019-08-01 10:18:16.421875,-73.48
2019-08-01 10:18:16.437500,-72.86
2019-08-01 10:18:16.453125,-68.74
2019-08-01 10:18:16.468750,-61.27
2019-08-01 10:18:16.484375,-51.28
2019-08-01 10:18:16.500000,-40.22
2019-08-01 10:18:16.515625,-29.74
2019-08-01 10:18:16.531250,-21.23
2019-08-01 10:18:16.546875,-15.62
2019-08-01 10:18:16.562500,-13.16
2019-08-01 10:18:16.578125,-13.51
2019-08-01 10:18:16.593750,-15.72
2019-08-01 10:18:16.609375,-18.26
2019-08-01 10:18:16.625000,-19.19
2019-08-01 10:18:16.640625,-16.58
2019-08-01 10:18:16.656250,-9.16
2019-08-01 10:18:16.671875,3.08
2019-08-01 10:18:16.687500,18.7
2019-08-01 10:18:16.703125,35.09
2019-08-01 10:18:16.718750,49.25
2019-08-01 10:18:16.734375,58.75
2019-08-01 10:18:16.750000,62.34
2019-08-01 10:18:16.765625,60.09
2019-08-01 10:18:16.781250,53.16
2019-08-01 10:18:16.796875,43.22
2019-08-01 10:18:16.812500,31.88
2019-08-01 10:18:16.828125,20.39
2019-08-01 10:18:16.843750,9.56
2019-08-01 10:18:16.859375,-0.21
2019-08-01 10:18:16.875000,-8.62
2019-08-01 10:18:16.890625,-15.39
2019-08-01 10:18:16.906250,-20.17
2019-08-01 10:18:16.921875,-22.67
2019-08-01 10:18:16.937500,-22.89
2019-08-01 10:18:16.953125,-21.16
2019-08-01 10:18:16.968750,-18.19
2019-08-01 10:18:16.984375,-14.8
2019-08-01 10:18:17.000000,-11.67
2019-08-01 10:18:17.015625,-9.06
2019-08-01 10:18:17.031250,-6.76
2019-08-01 10:18:17.046875,-4.22
2019-08-01 10:18:17.062500,-0.82
2019-08-01 10:18:17.078125,3.77
2019-08-01 10:18:17.093750,9.31
2019-08-01 10:18:17.109375,15.06
2019-08-01 10:18:17.125000,20.03
2019-08-01 10:18:17.140625,23.41
2019-08-01 10:18:17.156250,24.84
2019-08-01 10:18:17.171875,24.56
2019-08-01 10:18:17.187500,23.17
2019-08-01 10:18:17.203125,21.4
2019-08-01 10:18:17.218750,19.84
2019-08-01 10:18:17.234375,18.96
2019-08-01 10:18:17.250000,19.11
2019-08-01 10:18:17.265625,20.47
2019-08-01 10:18:17.281250,23.03
2019-08-01 10:18:17.296875,26.42
2019-08-01 10:18:17.312500,29.89
2019-08-01 10:18:17.328125,32.5
2019-08-01 10:18:17.343750,33.42
2019-08-01 10:18:17.359375,32.24
2019-08-01 10:18:17.375000,29.18
2019-08-01 10:18:17.390625,25.0
2019-08-01 10:18:17.406250,20.71
2019-08-01 10:18:17.421875,17.17
2019-08-01 10:18:17.437500,14.77
2019-08-01 10:18:17.453125,13.37
2019-08-01 10:18:17.468750,12.48
2019-08-01 10:18:17.484375,11.56
2019-08-01 10:18:17.500000,10.32
2019-08-01 10:18:17.515625,8.85
2019-08-01 10:18:17.531250,7.49
2019-08-01 10:18:17.546875,6.65
2019-08-01 10:18:17.562500,6.49
2019-08-01 10:18:17.578125,6.96
2019-08-01 10:18:17.593750,7.86
2019-08-01 10:18:17.609375,9.05
2019-08-01 10:18:17.625000,10.53
2019-08-01 10:18:17.640625,12.28
2019-08-01 10:18:17.656250,14.12
2019-08-01 10:18:17.671875,15.44
2019-08-01 10:18:17.687500,15.43
2019-08-01 10:18:17.703125,13.33
2019-08-01 10:18:17.718750,8.78
2019-08-01 10:18:17.734375,1.99
2019-08-01 10:18:17.750000,-6.27
2019-08-01 10:18:17.765625,-15.05
2019-08-01 10:18:17.781250,-23.46
2019-08-01 10:18:17.796875,-30.95
2019-08-01 10:18:17.812500,-37.27
2019-08-01 10:18:17.828125,-42.4
2019-08-01 10:18:17.843750,-46.42
2019-08-01 10:18:17.859375,-49.31
2019-08-01 10:18:17.875000,-50.99
2019-08-01 10:18:17.890625,-51.33
2019-08-01 10:18:17.906250,-50.27
2019-08-01 10:18:17.921875,-47.92
2019-08-01 10:18:17.937500,-44.62
2019-08-01 10:18:17.953125,-40.9
2019-08-01 10:18:17.968750,-37.4
2019-08-01 10:18:17.984375,-34.8
2019-08-01 10:18:18.000000,-33.81
2019-08-01 10:18:18.015625,-35.03
2019-08-01 10:18:18.031250,-38.98
2019-08-01 10:18:18.046875,-45.9
2019-08-01 10:18:18.062500,-55.59
2019-08-01 10:18:18.078125,-67.24
2019-08-01 10:18:18.093750,-79.43
2019-08-01 10:18:18.109375,-90.24
2019-08-01 10:18:18.125000,-97.74
2019-08-01 10:18:18.140625,-100.42
2019-08-01 10:18:18.156250,-97.72
2019-08-01 10:18:18.171875,-90.16
2019-08-01 10:18:18.187500,-79.16
2019-08-01 10:18:18.203125,-66.57
2019-08-01 10:18:18.218750,-54.1
2019-08-01 10:18:18.234375,-42.89
2019-08-01 10:18:18.250000,-33.35
2019-08-01 10:18:18.265625,-25.3
2019-08-01 10:18:18.281250,-18.28
2019-08-01 10:18:18.296875,-11.9
2019-08-01 10:18:18.312500,-6.0
2019-08-01 10:18:18.328125,-0.74
2019-08-01 10:18:18.343750,3.58
2019-08-01 10:18:18.359375,6.68
2019-08-01 10:18:18.375000,8.5
2019-08-01 10:18:18.390625,9.21
2019-08-01 10:18:18.406250,9.28
2019-08-01 10:18:18.421875,9.27
2019-08-01 10:18:18.437500,9.83
2019-08-01 10:18:18.453125,11.5
2019-08-01 10:18:18.468750,14.73
2019-08-01 10:18:18.484375,19.87
2019-08-01 10:18:18.500000,27.18
2019-08-01 10:18:18.515625,36.74
2019-08-01 10:18:18.531250,48.29
2019-08-01 10:18:18.546875,61.01
2019-08-01 10:18:18.562500,73.44
2019-08-01 10:18:18.578125,83.85
2019-08-01 10:18:18.593750,90.57
2019-08-01 10:18:18.609375,92.62
2019-08-01 10:18:18.625000,89.9
2019-08-01 10:18:18.640625,83.23
2019-08-01 10:18:18.656250,73.9
2019-08-01 10:18:18.671875,63.25
2019-08-01 10:18:18.687500,52.39
2019-08-01 10:18:18.703125,42.06
2019-08-01 10:18:18.718750,32.74
2019-08-01 10:18:18.734375,24.85
2019-08-01 10:18:18.750000,18.64
2019-08-01 10:18:18.765625,14.22
2019-08-01 10:18:18.781250,11.3
2019-08-01 10:18:18.796875,9.2
2019-08-01 10:18:18.812500,6.94
2019-08-01 10:18:18.828125,3.59
2019-08-01 10:18:18.843750,-1.53
2019-08-01 10:18:18.859375,-8.51
2019-08-01 10:18:18.875000,-16.86
2019-08-01 10:18:18.890625,-25.58
2019-08-01 10:18:18.906250,-33.36
2019-08-01 10:18:18.921875,-38.92
2019-08-01 10:18:18.937500,-41.33
2019-08-01 10:18:18.953125,-40.23
2019-08-01 10:18:18.968750,-35.96
2019-08-01 10:18:18.984375,-29.38
2019-08-01 10:18:19.000000,-21.62
2019-08-01 10:18:19.015625,-13.73
2019-08-01 10:18:19.031250,-6.43
2019-08-01 10:18:19.046875,-0.04
2019-08-01 10:18:19.062500,5.38
2019-08-01 10:18:19.078125,9.95
2019-08-01 10:18:19.093750,13.71
2019-08-01 10:18:19.109375,16.6
2019-08-01 10:18:19.125000,18.45
2019-08-01 10:18:19.140625,19.09
2019-08-01 10:18:19.156250,18.44
2019-08-01 10:18:19.171875,16.55
2019-08-01 10:18:19.187500,13.7
2019-08-01 10:18:19.203125,10.27
2019-08-01 10:18:19.218750,6.67
2019-08-01 10:18:19.234375,3.23
2019-08-01 10:18:19.250000,0.1
2019-08-01 10:18:19.265625,-2.66
2019-08-01 10:18:19.281250,-5.1
2019-08-01 10:18:19.296875,-7.24
2019-08-01 10:18:19.312500,-9.11
2019-08-01 10:18:19.328125,-10.73
2019-08-01 10:18:19.343750,-12.17
2019-08-01 10:18:19.359375,-13.51
2019-08-01 10:18:19.375000,-14.76
2019-08-01 10:18:19.390625,-15.84
2019-08-01 10:18:19.406250,-16.53
2019-08-01 10:18:19.421875,-16.62
2019-08-01 10:18:19.437500,-15.96
2019-08-01 10:18:19.453125,-14.65
2019-08-01 10:18:19.468750,-12.93
2019-08-01 10:18:19.484375,-11.21
2019-08-01 10:18:19.500000,-9.85
2019-08-01 10:18:19.515625,-9.04
2019-08-01 10:18:19.531250,-8.71
2019-08-01 10:18:19.546875,-8.55
2019-08-01 10:18:19.562500,-8.1
2019-08-01 10:18:19.578125,-6.89
2019-08-01 10:18:19.593750,-4.65
2019-08-01 10:18:19.609375,-1.53
2019-08-01 10:18:19.625000,1.89
2019-08-01 10:18:19.640625,4.77
2019-08-01 10:18:19.656250,6.24
2019-08-01 10:18:19.671875,5.79
2019-08-01 10:18:19.687500,3.52
2019-08-01 10:18:19.703125,0.09
2019-08-01 10:18:19.718750,-3.44
2019-08-01 10:18:19.734375,-6.02
2019-08-01 10:18:19.750000,-6.98
2019-08-01 10:18:19.765625,-6.22
2019-08-01 10:18:19.781250,-4.15
2019-08-01 10:18:19.796875,-1.53
2019-08-01 10:18:19.812500,0.83
2019-08-01 10:18:19.828125,2.3
2019-08-01 10:18:19.843750,2.52
2019-08-01 10:18:19.859375,1.46
2019-08-01 10:18:19.875000,-0.56
2019-08-01 10:18:19.890625,-2.82
2019-08-01 10:18:19.906250,-4.38
2019-08-01 10:18:19.921875,-4.42
2019-08-01 10:18:19.937500,-2.66
2019-08-01 10:18:19.953125,0.39
2019-08-01 10:18:19.968750,3.55
2019-08-01 10:18:19.984375,5.44
2019-08-01 10:18:20.000000,5.26
2019-08-01 10:18:20.015625,3.1
2019-08-01 10:18:20.031250,-0.09
2019-08-01 10:18:20.046875,-3.12
2019-08-01 10:18:20.062500,-5.27
2019-08-01 10:18:20.078125,-6.62
2019-08-01 10:18:20.093750,-7.86
2019-08-01 10:18:20.109375,-9.63
2019-08-01 10:18:20.125000,-11.94
2019-08-01 10:18:20.140625,-13.97
2019-08-01 10:18:20.156250,-14.55
2019-08-01 10:18:20.171875,-12.88
2019-08-01 10:18:20.187500,-9.15
2019-08-01 10:18:20.203125,-4.59
2019-08-01 10:18:20.218750,-0.9
2019-08-01 10:18:20.234375,0.55
2019-08-01 10:18:20.250000,-0.67
2019-08-01 10:18:20.265625,-3.78
2019-08-01 10:18:20.281250,-7.21
2019-08-01 10:18:20.296875,-9.36
2019-08-01 10:18:20.312500,-9.21
2019-08-01 10:18:20.328125,-6.63
2019-08-01 10:18:20.343750,-2.22
2019-08-01 10:18:20.359375,3.03
2019-08-01 10:18:20.375000,8.25
2019-08-01 10:18:20.390625,12.8
2019-08-01 10:18:20.406250,16.37
2019-08-01 10:18:20.421875,18.74
2019-08-01 10:18:20.437500,19.71
2019-08-01 10:18:20.453125,18.98
2019-08-01 10:18:20.468750,16.16
2019-08-01 10:18:20.484375,10.89
2019-08-01 10:18:20.500000,2.99
2019-08-01 10:18:20.515625,-7.39
2019-08-01 10:18:20.531250,-19.48
2019-08-01 10:18:20.546875,-31.96
2019-08-01 10:18:20.562500,-43.09
2019-08-01 10:18:20.578125,-51.22
2019-08-01 10:18:20.593750,-55.2
2019-08-01 10:18:20.609375,-54.71
2019-08-01 10:18:20.625000,-50.24
2019-08-01 10:18:20.640625,-42.77
2019-08-01 10:18:20.656250,-33.43
2019-08-01 10:18:20.671875,-23.22
2019-08-01 10:18:20.687500,-12.96
2019-08-01 10:18:20.703125,-3.39
2019-08-01 10:18:20.718750,4.8
2019-08-01 10:18:20.734375,11.14
2019-08-01 10:18:20.750000,15.5
2019-08-01 10:18:20.765625,18.24
2019-08-01 10:18:20.781250,20.1
2019-08-01 10:18:20.796875,21.98
2019-08-01 10:18:20.812500,24.56
2019-08-01 10:18:20.828125,28.03
2019-08-01 10:18:20.843750,32.07
2019-08-01 10:18:20.859375,35.96
2019-08-01 10:18:20.875000,38.83
2019-08-01 10:18:20.890625,39.91
2019-08-01 10:18:20.906250,38.76
2019-08-01 10:18:20.921875,35.33
2019-08-01 10:18:20.937500,29.96
2019-08-01 10:18:20.953125,23.23
2019-08-01 10:18:20.968750,15.8
2019-08-01 10:18:20.984375,8.28
2019-08-01 10:18:21.000000,1.18
2019-08-01 10:18:21.015625,-5.18
2019-08-01 10:18:21.031250,-10.56
2019-08-01 10:18:21.046875,-14.89
2019-08-01 10:18:21.062500,-18.17
2019-08-01 10:18:21.078125,-20.46
2019-08-01 10:18:21.093750,-21.8
2019-08-01 10:18:21.109375,-22.16
2019-08-01 10:18:21.125000,-21.41
2019-08-01 10:18:21.140625,-19.33
2019-08-01 10:18:21.156250,-15.75
2019-08-01 10:18:21.171875,-10.68
2019-08-01 10:18:21.187500,-4.3
2019-08-01 10:18:21.203125,2.98
2019-08-01 10:18:21.218750,10.62
2019-08-01 10:18:21.234375,17.98
2019-08-01 10:18:21.250000,24.41
2019-08-01 10:18:21.265625,29.24
2019-08-01 10:18:21.281250,31.86
2019-08-01 10:18:21.296875,31.88
2019-08-01 10:18:21.312500,29.23
2019-08-01 10:18:21.328125,24.24
2019-08-01 10:18:21.343750,17.5
2019-08-01 10:18:21.359375,9.79
2019-08-01 10:18:21.375000,1.83
2019-08-01 10:18:21.390625,-5.87
2019-08-01 10:18:21.406250,-13.03
2019-08-01 10:18:21.421875,-19.54
2019-08-01 10:18:21.437500,-25.35
2019-08-01 10:18:21.453125,-30.37
2019-08-01 10:18:21.468750,-34.42
2019-08-01 10:18:21.484375,-37.21
2019-08-01 10:18:21.500000,-38.35
2019-08-01 10:18:21.515625,-37.44
2019-08-01 10:18:21.531250,-34.09
2019-08-01 10:18:21.546875,-28.15
2019-08-01 10:18:21.562500,-19.82
2019-08-01 10:18:21.578125,-9.75
2019-08-01 10:18:21.593750,1.01
2019-08-01 10:18:21.609375,11.28
2019-08-01 10:18:21.625000,19.99
2019-08-01 10:18:21.640625,26.49
2019-08-01 10:18:21.656250,30.65
2019-08-01 10:18:21.671875,32.74
2019-08-01 10:18:21.687500,33.2
2019-08-01 10:18:21.703125,32.44
2019-08-01 10:18:21.718750,30.66
2019-08-01 10:18:21.734375,27.86
2019-08-01 10:18:21.750000,24.06
2019-08-01 10:18:21.765625,19.4
2019-08-01 10:18:21.781250,14.25
2019-08-01 10:18:21.796875,9.08
2019-08-01 10:18:21.812500,4.39
2019-08-01 10:18:21.828125,0.57
2019-08-01 10:18:21.843750,-2.21
2019-08-01 10:18:21.859375,-4.0
2019-08-01 10:18:21.875000,-4.98
2019-08-01 10:18:21.890625,-5.38
2019-08-01 10:18:21.906250,-5.4
2019-08-01 10:18:21.921875,-5.2
2019-08-01 10:18:21.937500,-4.84
2019-08-01 10:18:21.953125,-4.38
2019-08-01 10:18:21.968750,-3.86
2019-08-01 10:18:21.984375,-3.33
2019-08-01 10:18:22.000000,-2.86
2019-08-01 10:18:22.015625,-2.5
2019-08-01 10:18:22.031250,-2.28
2019-08-01 10:18:22.046875,-2.19
2019-08-01 10:18:22.062500,-2.21
2019-08-01 10:18:22.078125,-2.34
2019-08-01 10:18:22.093750,-2.6
2019-08-01 10:18:22.109375,-3.02
2019-08-01 10:18:22.125000,-3.64
2019-08-01 10:18:22.140625,-4.44
2019-08-01 10:18:22.156250,-5.37
2019-08-01 10:18:22.171875,-6.32
2019-08-01 10:18:22.187500,-7.23
2019-08-01 10:18:22.203125,-8.06
2019-08-01 10:18:22.218750,-8.86
2019-08-01 10:18:22.234375,-9.69
2019-08-01 10:18:22.250000,-10.67
2019-08-01 10:18:22.265625,-11.84
2019-08-01 10:18:22.281250,-13.21
2019-08-01 10:18:22.296875,-14.7
2019-08-01 10:18:22.312500,-16.18
2019-08-01 10:18:22.328125,-17.55
2019-08-01 10:18:22.343750,-18.7
2019-08-01 10:18:22.359375,-19.59
2019-08-01 10:18:22.375000,-20.25
2019-08-01 10:18:22.390625,-20.71
2019-08-01 10:18:22.406250,-21.03
2019-08-01 10:18:22.421875,-21.18
2019-08-01 10:18:22.437500,-20.98
2019-08-01 10:18:22.453125,-20.12
2019-08-01 10:18:22.468750,-18.22
2019-08-01 10:18:22.484375,-15.03
2019-08-01 10:18:22.500000,-10.61
2019-08-01 10:18:22.515625,-5.39
2019-08-01 10:18:22.531250,-0.1
2019-08-01 10:18:22.546875,4.42
2019-08-01 10:18:22.562500,7.59
2019-08-01 10:18:22.578125,9.25
2019-08-01 10:18:22.593750,9.74
2019-08-01 10:18:22.609375,9.64
2019-08-01 10:18:22.625000,9.5
2019-08-01 10:18:22.640625,9.51
2019-08-01 10:18:22.656250,9.52
2019-08-01 10:18:22.671875,9.17
2019-08-01 10:18:22.687500,8.26
2019-08-01 10:18:22.703125,6.85
2019-08-01 10:18:22.718750,5.34
2019-08-01 10:18:22.734375,4.13
2019-08-01 10:18:22.750000,3.45
2019-08-01 10:18:22.765625,3.19
2019-08-01 10:18:22.781250,2.98
2019-08-01 10:18:22.796875,2.41
2019-08-01 10:18:22.812500,1.26
2019-08-01 10:18:22.828125,-0.35
2019-08-01 10:18:22.843750,-2.08
2019-08-01 10:18:22.859375,-3.54
2019-08-01 10:18:22.875000,-4.51
2019-08-01 10:18:22.890625,-5.0
2019-08-01 10:18:22.906250,-5.22
2019-08-01 10:18:22.921875,-5.55
2019-08-01 10:18:22.937500,-6.29
2019-08-01 10:18:22.953125,-7.66
2019-08-01 10:18:22.968750,-9.63
2019-08-01 10:18:22.984375,-11.89
2019-08-01 10:18:23.000000,-13.92
2019-08-01 10:18:23.015625,-15.07
2019-08-01 10:18:23.031250,-14.8
2019-08-01 10:18:23.046875,-12.87
2019-08-01 10:18:23.062500,-9.57
2019-08-01 10:18:23.078125,-5.7
2019-08-01 10:18:23.093750,-2.37
2019-08-01 10:18:23.109375,-0.68
2019-08-01 10:18:23.125000,-1.32
2019-08-01 10:18:23.140625,-4.25
2019-08-01 10:18:23.156250,-8.59
2019-08-01 10:18:23.171875,-12.87
2019-08-01 10:18:23.187500,-15.32
2019-08-01 10:18:23.203125,-14.45
2019-08-01 10:18:23.218750,-9.46
2019-08-01 10:18:23.234375,-0.53
2019-08-01 10:18:23.250000,11.18
2019-08-01 10:18:23.265625,23.8
2019-08-01 10:18:23.281250,35.25
2019-08-01 10:18:23.296875,43.75
2019-08-01 10:18:23.312500,48.3
2019-08-01 10:18:23.328125,48.77
2019-08-01 10:18:23.343750,45.85
2019-08-01 10:18:23.359375,40.64
2019-08-01 10:18:23.375000,34.28
2019-08-01 10:18:23.390625,27.6
2019-08-01 10:18:23.406250,20.97
2019-08-01 10:18:23.421875,14.42
2019-08-01 10:18:23.437500,7.92
2019-08-01 10:18:23.453125,1.56
2019-08-01 10:18:23.468750,-4.26
2019-08-01 10:18:23.484375,-8.92
2019-08-01 10:18:23.500000,-11.83
2019-08-01 10:18:23.515625,-12.64
2019-08-01 10:18:23.531250,-11.42
2019-08-01 10:18:23.546875,-8.69
2019-08-01 10:18:23.562500,-5.19
2019-08-01 10:18:23.578125,-1.67
2019-08-01 10:18:23.593750,1.28
2019-08-01 10:18:23.609375,3.31
2019-08-01 10:18:23.625000,4.26
2019-08-01 10:18:23.640625,4.1
2019-08-01 10:18:23.656250,2.93
2019-08-01 10:18:23.671875,0.99
2019-08-01 10:18:23.687500,-1.31
2019-08-01 10:18:23.703125,-3.41
2019-08-01 10:18:23.718750,-4.77
2019-08-01 10:18:23.734375,-5.07
2019-08-01 10:18:23.750000,-4.3
2019-08-01 10:18:23.765625,-2.85
2019-08-01 10:18:23.781250,-1.31
2019-08-01 10:18:23.796875,-0.37
2019-08-01 10:18:23.812500,-0.44
2019-08-01 10:18:23.828125,-1.69
2019-08-01 10:18:23.843750,-3.92
2019-08-01 10:18:23.859375,-6.7
2019-08-01 10:18:23.875000,-9.58
2019-08-01 10:18:23.890625,-12.14
2019-08-01 10:18:23.906250,-14.13
2019-08-01 10:18:23.921875,-15.52
2019-08-01 10:18:23.937500,-16.39
2019-08-01 10:18:23.953125,-16.88
2019-08-01 10:18:23.968750,-17.13
2019-08-01 10:18:23.984375,-17.19
2019-08-01 10:18:24.000000,-17.13
2019-08-01 10:18:24.015625,-16.98
2019-08-01 10:18:24.031250,-16.81
2019-08-01 10:18:24.046875,-16.71
2019-08-01 10:18:24.062500,-16.73
2019-08-01 10:18:24.078125,-16.91
2019-08-01 10:18:24.093750,-17.22
2019-08-01 10:18:24.109375,-17.65
2019-08-01 10:18:24.125000,-18.21
2019-08-01 10:18:24.140625,-18.89
2019-08-01 10:18:24.156250,-19.53
2019-08-01 10:18:24.171875,-19.78
2019-08-01 10:18:24.187500,-19.15
2019-08-01 10:18:24.203125,-17.11
2019-08-01 10:18:24.218750,-13.35
2019-08-01 10:18:24.234375,-8.02
2019-08-01 10:18:24.250000,-1.76
2019-08-01 10:18:24.265625,4.45
2019-08-01 10:18:24.281250,9.6
2019-08-01 10:18:24.296875,12.99
2019-08-01 10:18:24.312500,14.48
2019-08-01 10:18:24.328125,14.4
2019-08-01 10:18:24.343750,13.38
2019-08-01 10:18:24.359375,12.03
2019-08-01 10:18:24.375000,10.8
2019-08-01 10:18:24.390625,9.85
2019-08-01 10:18:24.406250,9.18
2019-08-01 10:18:24.421875,8.77
2019-08-01 10:18:24.437500,8.63
2019-08-01 10:18:24.453125,8.8
2019-08-01 10:18:24.468750,9.26
2019-08-01 10:18:24.484375,9.89
2019-08-01 10:18:24.500000,10.44
2019-08-01 10:18:24.515625,10.67
2019-08-01 10:18:24.531250,10.45
2019-08-01 10:18:24.546875,9.82
2019-08-01 10:18:24.562500,9.0
2019-08-01 10:18:24.578125,8.17
2019-08-01 10:18:24.593750,7.54
2019-08-01 10:18:24.609375,7.08
2019-08-01 10:18:24.625000,6.73
2019-08-01 10:18:24.640625,6.36
2019-08-01 10:18:24.656250,5.84
2019-08-01 10:18:24.671875,5.07
2019-08-01 10:18:24.687500,3.98
2019-08-01 10:18:24.703125,2.58
2019-08-01 10:18:24.718750,0.91
2019-08-01 10:18:24.734375,-0.83
2019-08-01 10:18:24.750000,-2.44
2019-08-01 10:18:24.765625,-3.74
2019-08-01 10:18:24.781250,-4.67
2019-08-01 10:18:24.796875,-5.33
2019-08-01 10:18:24.812500,-5.96
2019-08-01 10:18:24.828125,-6.74
2019-08-01 10:18:24.843750,-7.75
2019-08-01 10:18:24.859375,-8.87
2019-08-01 10:18:24.875000,-9.88
2019-08-01 10:18:24.890625,-10.61
2019-08-01 10:18:24.906250,-10.99
2019-08-01 10:18:24.921875,-11.15
2019-08-01 10:18:24.937500,-11.33
2019-08-01 10:18:24.953125,-11.83
2019-08-01 10:18:24.968750,-12.85
2019-08-01 10:18:24.984375,-14.44
2019-08-01 10:18:25.000000,-16.45
2019-08-01 10:18:25.015625,-18.51
2019-08-01 10:18:25.031250,-20.05
2019-08-01 10:18:25.046875,-20.43
2019-08-01 10:18:25.062500,-19.12
2019-08-01 10:18:25.078125,-15.96
2019-08-01 10:18:25.093750,-11.27
2019-08-01 10:18:25.109375,-5.81
2019-08-01 10:18:25.125000,-0.49
2019-08-01 10:18:25.140625,3.91
2019-08-01 10:18:25.156250,7.04
2019-08-01 10:18:25.171875,9.01
2019-08-01 10:18:25.187500,10.17
2019-08-01 10:18:25.203125,10.85
2019-08-01 10:18:25.218750,11.22
2019-08-01 10:18:25.234375,11.23
2019-08-01 10:18:25.250000,10.77
2019-08-01 10:18:25.265625,9.81
2019-08-01 10:18:25.281250,8.48
2019-08-01 10:18:25.296875,7.0
2019-08-01 10:18:25.312500,5.54
2019-08-01 10:18:25.328125,4.15
2019-08-01 10:18:25.343750,2.79
2019-08-01 10:18:25.359375,1.47
2019-08-01 10:18:25.375000,0.22
2019-08-01 10:18:25.390625,-0.86
2019-08-01 10:18:25.406250,-1.67
2019-08-01 10:18:25.421875,-2.19
2019-08-01 10:18:25.437500,-2.46
2019-08-01 10:18:25.453125,-2.53
2019-08-01 10:18:25.468750,-2.4
2019-08-01 10:18:25.484375,-2.1
2019-08-01 10:18:25.500000,-1.62
2019-08-01 10:18:25.515625,-1.04
2019-08-01 10:18:25.531250,-0.49
2019-08-01 10:18:25.546875,-0.13
2019-08-01 10:18:25.562500,-0.07
2019-08-01 10:18:25.578125,-0.4
2019-08-01 10:18:25.593750,-1.18
2019-08-01 10:18:25.609375,-2.4
2019-08-01 10:18:25.625000,-4.0
2019-08-01 10:18:25.640625,-5.79
2019-08-01 10:18:25.656250,-7.43
2019-08-01 10:18:25.671875,-8.6
2019-08-01 10:18:25.687500,-9.11
2019-08-01 10:18:25.703125,-9.01
2019-08-01 10:18:25.718750,-8.64
2019-08-01 10:18:25.734375,-8.43
2019-08-01 10:18:25.750000,-8.72
2019-08-01 10:18:25.765625,-9.56
2019-08-01 10:18:25.781250,-10.68
2019-08-01 10:18:25.796875,-11.67
2019-08-01 10:18:25.812500,-12.15
2019-08-01 10:18:25.828125,-11.96
2019-08-01 10:18:25.843750,-11.31
2019-08-01 10:18:25.859375,-10.6
2019-08-01 10:18:25.875000,-10.28
2019-08-01 10:18:25.890625,-10.67
2019-08-01 10:18:25.906250,-11.78
2019-08-01 10:18:25.921875,-13.29
2019-08-01 10:18:25.937500,-14.66
2019-08-01 10:18:25.953125,-15.21
2019-08-01 10:18:25.968750,-14.38
2019-08-01 10:18:25.984375,-11.88
2019-08-01 10:18:26.000000,-7.76
2019-08-01 10:18:26.015625,-2.42
2019-08-01 10:18:26.031250,3.53
2019-08-01 10:18:26.046875,9.45
2019-08-01 10:18:26.062500,14.78
2019-08-01 10:18:26.078125,19.16
2019-08-01 10:18:26.093750,22.37
2019-08-01 10:18:26.109375,24.43
2019-08-01 10:18:26.125000,25.39
2019-08-01 10:18:26.140625,25.36
2019-08-01 10:18:26.156250,24.5
2019-08-01 10:18:26.171875,22.95
2019-08-01 10:18:26.187500,20.97
2019-08-01 10:18:26.203125,18.86
2019-08-01 10:18:26.218750,16.95
2019-08-01 10:18:26.234375,15.51
2019-08-01 10:18:26.250000,14.65
2019-08-01 10:18:26.265625,14.29
2019-08-01 10:18:26.281250,14.17
2019-08-01 10:18:26.296875,14.07
2019-08-01 10:18:26.312500,13.81
2019-08-01 10:18:26.328125,13.39
2019-08-01 10:18:26.343750,12.86
2019-08-01 10:18:26.359375,12.32
2019-08-01 10:18:26.375000,11.79
2019-08-01 10:18:26.390625,11.24
2019-08-01 10:18:26.406250,10.57
2019-08-01 10:18:26.421875,9.66
2019-08-01 10:18:26.437500,8.37
2019-08-01 10:18:26.453125,6.54
2019-08-01 10:18:26.468750,4.06
2019-08-01 10:18:26.484375,0.97
2019-08-01 10:18:26.500000,-2.38
2019-08-01 10:18:26.515625,-5.38
2019-08-01 10:18:26.531250,-7.33
2019-08-01 10:18:26.546875,-7.74
2019-08-01 10:18:26.562500,-6.59
2019-08-01 10:18:26.578125,-4.4
2019-08-01 10:18:26.593750,-2.05
2019-08-01 10:18:26.609375,-0.4
2019-08-01 10:18:26.625000,0.01
2019-08-01 10:18:26.640625,-0.92
2019-08-01 10:18:26.656250,-2.89
2019-08-01 10:18:26.671875,-5.46
2019-08-01 10:18:26.687500,-8.25
2019-08-01 10:18:26.703125,-10.97
2019-08-01 10:18:26.718750,-13.49
2019-08-01 10:18:26.734375,-15.71
2019-08-01 10:18:26.750000,-17.54
2019-08-01 10:18:26.765625,-18.95
2019-08-01 10:18:26.781250,-19.95
2019-08-01 10:18:26.796875,-20.57
2019-08-01 10:18:26.812500,-20.83
2019-08-01 10:18:26.828125,-20.59
2019-08-01 10:18:26.843750,-19.57
2019-08-01 10:18:26.859375,-17.49
2019-08-01 10:18:26.875000,-14.15
2019-08-01 10:18:26.890625,-9.71
2019-08-01 10:18:26.906250,-4.66
2019-08-01 10:18:26.921875,0.26
2019-08-01 10:18:26.937500,4.32
2019-08-01 10:18:26.953125,7.06
2019-08-01 10:18:26.968750,8.47
2019-08-01 10:18:26.984375,9.01
2019-08-01 10:18:27.000000,9.44
2019-08-01 10:18:27.015625,10.47
2019-08-01 10:18:27.031250,12.5
2019-08-01 10:18:27.046875,15.42
2019-08-01 10:18:27.062500,18.7
2019-08-01 10:18:27.078125,21.61
2019-08-01 10:18:27.093750,23.56
2019-08-01 10:18:27.109375,24.25
2019-08-01 10:18:27.125000,23.75
2019-08-01 10:18:27.140625,22.36
2019-08-01 10:18:27.156250,20.44
2019-08-01 10:18:27.171875,18.36
2019-08-01 10:18:27.187500,16.49
2019-08-01 10:18:27.203125,15.15
2019-08-01 10:18:27.218750,14.59
2019-08-01 10:18:27.234375,14.87
2019-08-01 10:18:27.250000,15.68
2019-08-01 10:18:27.265625,16.36
2019-08-01 10:18:27.281250,16.07
2019-08-01 10:18:27.296875,14.13
2019-08-01 10:18:27.312500,10.31
2019-08-01 10:18:27.328125,4.94
2019-08-01 10:18:27.343750,-1.25
2019-08-01 10:18:27.359375,-7.35
2019-08-01 10:18:27.375000,-12.62
2019-08-01 10:18:27.390625,-16.58
2019-08-01 10:18:27.406250,-19.07
2019-08-01 10:18:27.421875,-20.15
2019-08-01 10:18:27.437500,-19.97
2019-08-01 10:18:27.453125,-18.75
2019-08-01 10:18:27.468750,-16.78
2019-08-01 10:18:27.484375,-14.42
2019-08-01 10:18:27.500000,-12.06
2019-08-01 10:18:27.515625,-10.08
2019-08-01 10:18:27.531250,-8.66
2019-08-01 10:18:27.546875,-7.77
2019-08-01 10:18:27.562500,-7.13
2019-08-01 10:18:27.578125,-6.4
2019-08-01 10:18:27.593750,-5.42
2019-08-01 10:18:27.609375,-4.3
2019-08-01 10:18:27.625000,-3.58
2019-08-01 10:18:27.640625,-3.97
2019-08-01 10:18:27.656250,-6.16
2019-08-01 10:18:27.671875,-10.5
2019-08-01 10:18:27.687500,-16.7
2019-08-01 10:18:27.703125,-23.83
2019-08-01 10:18:27.718750,-30.52
2019-08-01 10:18:27.734375,-35.24
2019-08-01 10:18:27.750000,-36.8
2019-08-01 10:18:27.765625,-34.68
2019-08-01 10:18:27.781250,-29.16
2019-08-01 10:18:27.796875,-21.25
2019-08-01 10:18:27.812500,-12.31
2019-08-01 10:18:27.828125,-3.68
2019-08-01 10:18:27.843750,3.69
2019-08-01 10:18:27.859375,9.35
2019-08-01 10:18:27.875000,13.35
2019-08-01 10:18:27.890625,15.98
2019-08-01 10:18:27.906250,17.64
2019-08-01 10:18:27.921875,18.62
2019-08-01 10:18:27.937500,19.15
2019-08-01 10:18:27.953125,19.31
2019-08-01 10:18:27.968750,19.17
2019-08-01 10:18:27.984375,18.72
2019-08-01 10:18:28.000000,17.94
2019-08-01 10:18:28.015625,16.8
2019-08-01 10:18:28.031250,15.28
2019-08-01 10:18:28.046875,13.4
2019-08-01 10:18:28.062500,11.2
2019-08-01 10:18:28.078125,8.79
2019-08-01 10:18:28.093750,6.4
2019-08-01 10:18:28.109375,4.26
2019-08-01 10:18:28.125000,2.64
2019-08-01 10:18:28.140625,1.66
2019-08-01 10:18:28.156250,1.33
2019-08-01 10:18:28.171875,1.49
2019-08-01 10:18:28.187500,1.94
2019-08-01 10:18:28.203125,2.52
2019-08-01 10:18:28.218750,3.17
2019-08-01 10:18:28.234375,3.95
2019-08-01 10:18:28.250000,4.92
2019-08-01 10:18:28.265625,6.08
2019-08-01 10:18:28.281250,7.19
2019-08-01 10:18:28.296875,7.88
2019-08-01 10:18:28.312500,7.74
2019-08-01 10:18:28.328125,6.43
2019-08-01 10:18:28.343750,3.89
2019-08-01 10:18:28.359375,0.31
2019-08-01 10:18:28.375000,-3.87
2019-08-01 10:18:28.390625,-8.12
2019-08-01 10:18:28.406250,-11.99
2019-08-01 10:18:28.421875,-15.27
2019-08-01 10:18:28.437500,-18.09
2019-08-01 10:18:28.453125,-20.78
2019-08-01 10:18:28.468750,-23.79
2019-08-01 10:18:28.484375,-27.39
2019-08-01 10:18:28.500000,-31.46
2019-08-01 10:18:28.515625,-35.51
2019-08-01 10:18:28.531250,-38.8
2019-08-01 10:18:28.546875,-40.71
2019-08-01 10:18:28.562500,-41.08
2019-08-01 10:18:28.578125,-40.32
2019-08-01 10:18:28.593750,-39.49
2019-08-01 10:18:28.609375,-39.98
2019-08-01 10:18:28.625000,-42.85
2019-08-01 10:18:28.640625,-48.31
2019-08-01 10:18:28.656250,-55.52
2019-08-01 10:18:28.671875,-62.84
2019-08-01 10:18:28.687500,-68.39
2019-08-01 10:18:28.703125,-70.61
2019-08-01 10:18:28.718750,-68.84
2019-08-01 10:18:28.734375,-63.69
2019-08-01 10:18:28.750000,-56.94
2019-08-01 10:18:28.765625,-50.94
2019-08-01 10:18:28.781250,-47.48
2019-08-01 10:18:28.796875,-46.72
2019-08-01 10:18:28.812500,-46.71
2019-08-01 10:18:28.828125,-43.48
2019-08-01 10:18:28.843750,-31.86
2019-08-01 10:18:28.859375,-6.76
2019-08-01 10:18:28.875000,35.04
2019-08-01 10:18:28.890625,92.99
2019-08-01 10:18:28.906250,162.42
2019-08-01 10:18:28.921875,235.21
2019-08-01 10:18:28.937500,301.61
2019-08-01 10:18:28.953125,352.64
2019-08-01 10:18:28.968750,382.55
2019-08-01 10:18:28.984375,390.33
2019-08-01 10:18:29.000000,379.54
2019-08-01 10:18:29.015625,356.6
2019-08-01 10:18:29.031250,327.26
2019-08-01 10:18:29.046875,296.0
2019-08-01 10:18:29.062500,265.75
2019-08-01 10:18:29.078125,238.23
2019-08-01 10:18:29.093750,214.08
2019-08-01 10:18:29.109375,193.2
2019-08-01 10:18:29.125000,174.98
2019-08-01 10:18:29.140625,158.49
2019-08-01 10:18:29.156250,142.59
2019-08-01 10:18:29.171875,124.03
2019-08-01 10:18:29.187500,100.67
2019-08-01 10:18:29.203125,72.91
2019-08-01 10:18:29.218750,43.51
2019-08-01 10:18:29.234375,15.6
2019-08-01 10:18:29.250000,-8.84
2019-08-01 10:18:29.265625,-29.59
2019-08-01 10:18:29.281250,-47.88
2019-08-01 10:18:29.296875,-65.65
2019-08-01 10:18:29.312500,-88.04
2019-08-01 10:18:29.328125,-118.32
2019-08-01 10:18:29.343750,-155.41
2019-08-01 10:18:29.359375,-194.32
2019-08-01 10:18:29.375000,-229.15
2019-08-01 10:18:29.390625,-255.98
2019-08-01 10:18:29.406250,-273.94
2019-08-01 10:18:29.421875,-284.81
2019-08-01 10:18:29.437500,-291.9
2019-08-01 10:18:29.453125,-303.06
2019-08-01 10:18:29.468750,-323.67
2019-08-01 10:18:29.484375,-353.6
2019-08-01 10:18:29.500000,-387.86
2019-08-01 10:18:29.515625,-420.48
2019-08-01 10:18:29.531250,-447.89
2019-08-01 10:18:29.546875,-469.57
2019-08-01 10:18:29.562500,-486.95
2019-08-01 10:18:29.578125,-473.72
2019-08-01 10:18:29.593750,-415.33
2019-08-01 10:18:29.609375,-317.44
2019-08-01 10:18:29.625000,-203.19
2019-08-01 10:18:29.640625,-95.61
2019-08-01 10:18:29.656250,-6.7
2019-08-01 10:18:29.671875,60.81
2019-08-01 10:18:29.687500,108.9
2019-08-01 10:18:29.703125,142.07
2019-08-01 10:18:29.718750,166.54
2019-08-01 10:18:29.734375,184.46
2019-08-01 10:18:29.750000,196.78
2019-08-01 10:18:29.765625,206.73
2019-08-01 10:18:29.781250,217.04
2019-08-01 10:18:29.796875,228.1
2019-08-01 10:18:29.812500,237.62
2019-08-01 10:18:29.828125,242.75
2019-08-01 10:18:29.843750,242.22
2019-08-01 10:18:29.859375,236.9
2019-08-01 10:18:29.875000,225.4
2019-08-01 10:18:29.890625,207.06
2019-08-01 10:18:29.906250,182.89
2019-08-01 10:18:29.921875,156.05
2019-08-01 10:18:29.937500,130.19
2019-08-01 10:18:29.953125,107.8
2019-08-01 10:18:29.968750,90.15
2019-08-01 10:18:29.984375,77.59
2019-08-01 10:18:30.000000,69.65
2019-08-01 10:18:30.015625,62.97
2019-08-01 10:18:30.031250,54.44
2019-08-01 10:18:30.046875,43.08
2019-08-01 10:18:30.062500,30.18
2019-08-01 10:18:30.078125,18.17
2019-08-01 10:18:30.093750,9.11
2019-08-01 10:18:30.109375,4.15
2019-08-01 10:18:30.125000,3.3
2019-08-01 10:18:30.140625,5.39
2019-08-01 10:18:30.156250,7.19
2019-08-01 10:18:30.171875,5.32
2019-08-01 10:18:30.187500,-2.21
2019-08-01 10:18:30.203125,-15.36
2019-08-01 10:18:30.218750,-32.34
2019-08-01 10:18:30.234375,-50.59
2019-08-01 10:18:30.250000,-67.6
2019-08-01 10:18:30.265625,-81.71
2019-08-01 10:18:30.281250,-92.52
2019-08-01 10:18:30.296875,-101.2
2019-08-01 10:18:30.312500,-109.38
2019-08-01 10:18:30.328125,-118.17
2019-08-01 10:18:30.343750,-127.82
2019-08-01 10:18:30.359375,-137.95
2019-08-01 10:18:30.375000,-147.94
2019-08-01 10:18:30.390625,-156.82
2019-08-01 10:18:30.406250,-163.14
2019-08-01 10:18:30.421875,-164.75
2019-08-01 10:18:30.437500,-159.11
2019-08-01 10:18:30.453125,-144.2
2019-08-01 10:18:30.468750,-119.28
2019-08-01 10:18:30.484375,-85.57
2019-08-01 10:18:30.500000,-46.02
2019-08-01 10:18:30.515625,-4.35
2019-08-01 10:18:30.531250,36.12
2019-08-01 10:18:30.546875,73.33
2019-08-01 10:18:30.562500,106.5
2019-08-01 10:18:30.578125,135.77
2019-08-01 10:18:30.593750,161.45
2019-08-01 10:18:30.609375,183.66
2019-08-01 10:18:30.625000,202.3
2019-08-01 10:18:30.640625,217.14
2019-08-01 10:18:30.656250,228.12
2019-08-01 10:18:30.671875,235.28
2019-08-01 10:18:30.687500,238.59
2019-08-01 10:18:30.703125,237.71
2019-08-01 10:18:30.718750,232.1
2019-08-01 10:18:30.734375,221.34
2019-08-01 10:18:30.750000,205.49
2019-08-01 10:18:30.765625,185.34
2019-08-01 10:18:30.781250,162.19
2019-08-01 10:18:30.796875,137.55
2019-08-01 10:18:30.812500,112.75
2019-08-01 10:18:30.828125,88.86
2019-08-01 10:18:30.843750,66.82
2019-08-01 10:18:30.859375,47.55
2019-08-01 10:18:30.875000,32.03
2019-08-01 10:18:30.890625,21.04
2019-08-01 10:18:30.906250,14.76
2019-08-01 10:18:30.921875,12.6
2019-08-01 10:18:30.937500,13.19
2019-08-01 10:18:30.953125,14.9
2019-08-01 10:18:30.968750,16.33
2019-08-01 10:18:30.984375,16.76
2019-08-01 10:18:31.000000,16.21
2019-08-01 10:18:31.015625,15.14
2019-08-01 10:18:31.031250,14.07
2019-08-01 10:18:31.046875,13.21
2019-08-01 10:18:31.062500,12.39
2019-08-01 10:18:31.078125,11.2
2019-08-01 10:18:31.093750,9.27
2019-08-01 10:18:31.109375,6.71
2019-08-01 10:18:31.125000,4.25
2019-08-01 10:18:31.140625,3.08
2019-08-01 10:18:31.156250,4.27
2019-08-01 10:18:31.171875,8.23
2019-08-01 10:18:31.187500,14.42
2019-08-01 10:18:31.203125,21.45
2019-08-01 10:18:31.218750,27.73
2019-08-01 10:18:31.234375,32.11
2019-08-01 10:18:31.250000,34.29
2019-08-01 10:18:31.265625,34.68
2019-08-01 10:18:31.281250,33.96
2019-08-01 10:18:31.296875,32.6
2019-08-01 10:18:31.312500,30.8
2019-08-01 10:18:31.328125,28.52
2019-08-01 10:18:31.343750,25.72
2019-08-01 10:18:31.359375,22.19
2019-08-01 10:18:31.375000,17.22
2019-08-01 10:18:31.390625,9.41
2019-08-01 10:18:31.406250,-2.95
2019-08-01 10:18:31.421875,-20.98
2019-08-01 10:18:31.437500,-44.41
2019-08-01 10:18:31.453125,-71.25
2019-08-01 10:18:31.468750,-98.45
2019-08-01 10:18:31.484375,-123.04
2019-08-01 10:18:31.500000,-143.24
2019-08-01 10:18:31.515625,-158.89
2019-08-01 10:18:31.531250,-171.04
2019-08-01 10:18:31.546875,-181.08
2019-08-01 10:18:31.562500,-189.91
2019-08-01 10:18:31.578125,-197.81
2019-08-01 10:18:31.593750,-204.58
2019-08-01 10:18:31.609375,-210.03
2019-08-01 10:18:31.625000,-214.16
2019-08-01 10:18:31.640625,-217.15
2019-08-01 10:18:31.656250,-219.24
2019-08-01 10:18:31.671875,-220.57
2019-08-01 10:18:31.687500,-221.23
2019-08-01 10:18:31.703125,-221.29
2019-08-01 10:18:31.718750,-221.04
2019-08-01 10:18:31.734375,-220.94
2019-08-01 10:18:31.750000,-221.43
2019-08-01 10:18:31.765625,-222.47
2019-08-01 10:18:31.781250,-223.12
2019-08-01 10:18:31.796875,-221.57
2019-08-01 10:18:31.812500,-215.65
2019-08-01 10:18:31.828125,-203.96
2019-08-01 10:18:31.843750,-186.73
2019-08-01 10:18:31.859375,-166.1
2019-08-01 10:18:31.875000,-145.33
2019-08-01 10:18:31.890625,-127.57
2019-08-01 10:18:31.906250,-114.6
2019-08-01 10:18:31.921875,-106.38
2019-08-01 10:18:31.937500,-101.71
2019-08-01 10:18:31.953125,-99.1
2019-08-01 10:18:31.968750,-97.36
2019-08-01 10:18:31.984375,-95.5
2019-08-01 10:18:32.000000,-92.62
2019-08-01 10:18:32.015625,-88.01
2019-08-01 10:18:32.031250,-81.78
2019-08-01 10:18:32.046875,-75.2
2019-08-01 10:18:32.062500,-70.21
2019-08-01 10:18:32.078125,-68.04
2019-08-01 10:18:32.093750,-67.47
2019-08-01 10:18:32.109375,-64.46
2019-08-01 10:18:32.125000,-53.64
2019-08-01 10:18:32.140625,-31.43
2019-08-01 10:18:32.156250,1.49
2019-08-01 10:18:32.171875,39.77
2019-08-01 10:18:32.187500,75.95
2019-08-01 10:18:32.203125,104.43
2019-08-01 10:18:32.218750,124.39
2019-08-01 10:18:32.234375,139.59
2019-08-01 10:18:32.250000,155.12
2019-08-01 10:18:32.265625,173.53
2019-08-01 10:18:32.281250,192.76
2019-08-01 10:18:32.296875,207.34
2019-08-01 10:18:32.312500,211.9
2019-08-01 10:18:32.328125,204.65
2019-08-01 10:18:32.343750,188.56
2019-08-01 10:18:32.359375,169.84
2019-08-01 10:18:32.375000,154.81
2019-08-01 10:18:32.390625,146.96
2019-08-01 10:18:32.406250,146.03
2019-08-01 10:18:32.421875,148.95
2019-08-01 10:18:32.437500,151.93
2019-08-01 10:18:32.453125,152.27
2019-08-01 10:18:32.468750,148.99
2019-08-01 10:18:32.484375,142.66
2019-08-01 10:18:32.500000,134.52
2019-08-01 10:18:32.515625,125.61
2019-08-01 10:18:32.531250,116.21
2019-08-01 10:18:32.546875,105.96
2019-08-01 10:18:32.562500,94.35
2019-08-01 10:18:32.578125,81.58
2019-08-01 10:18:32.593750,69.11
2019-08-01 10:18:32.609375,59.65
2019-08-01 10:18:32.625000,56.06
2019-08-01 10:18:32.640625,59.91
2019-08-01 10:18:32.656250,70.41
2019-08-01 10:18:32.671875,84.47
2019-08-01 10:18:32.687500,97.98
2019-08-01 10:18:32.703125,107.67
2019-08-01 10:18:32.718750,112.6
2019-08-01 10:18:32.734375,114.4
2019-08-01 10:18:32.750000,116.23
2019-08-01 10:18:32.765625,120.91
2019-08-01 10:18:32.781250,129.46
2019-08-01 10:18:32.796875,140.48
2019-08-01 10:18:32.812500,150.63
2019-08-01 10:18:32.828125,156.07
2019-08-01 10:18:32.843750,153.68
2019-08-01 10:18:32.859375,142.04
2019-08-01 10:18:32.875000,121.47
2019-08-01 10:18:32.890625,93.83
2019-08-01 10:18:32.906250,62.07
2019-08-01 10:18:32.921875,29.81
2019-08-01 10:18:32.937500,0.88
2019-08-01 10:18:32.953125,-21.49
2019-08-01 10:18:32.968750,-35.56
2019-08-01 10:18:32.984375,-41.75
2019-08-01 10:18:33.000000,-42.47
2019-08-01 10:18:33.015625,-40.98
2019-08-01 10:18:33.031250,-39.91
2019-08-01 10:18:33.046875,-39.97
2019-08-01 10:18:33.062500,-39.93
2019-08-01 10:18:33.078125,-37.57
2019-08-01 10:18:33.093750,-31.31
2019-08-01 10:18:33.109375,-21.28
2019-08-01 10:18:33.125000,-9.42
2019-08-01 10:18:33.140625,1.39
2019-08-01 10:18:33.156250,8.51
2019-08-01 10:18:33.171875,10.33
2019-08-01 10:18:33.187500,6.49
2019-08-01 10:18:33.203125,-2.42
2019-08-01 10:18:33.218750,-15.11
2019-08-01 10:18:33.234375,-29.87
2019-08-01 10:18:33.250000,-44.69
2019-08-01 10:18:33.265625,-57.82
2019-08-01 10:18:33.281250,-68.19
2019-08-01 10:18:33.296875,-75.89
2019-08-01 10:18:33.312500,-82.13
2019-08-01 10:18:33.328125,-88.6
2019-08-01 10:18:33.343750,-96.59
2019-08-01 10:18:33.359375,-106.5
2019-08-01 10:18:33.375000,-117.87
2019-08-01 10:18:33.390625,-129.7
2019-08-01 10:18:33.406250,-140.96
2019-08-01 10:18:33.421875,-150.7
2019-08-01 10:18:33.437500,-158.25
2019-08-01 10:18:33.453125,-163.21
2019-08-01 10:18:33.468750,-165.58
2019-08-01 10:18:33.484375,-166.06
2019-08-01 10:18:33.500000,-165.73
2019-08-01 10:18:33.515625,-165.71
2019-08-01 10:18:33.531250,-166.37
2019-08-01 10:18:33.546875,-167.19
2019-08-01 10:18:33.562500,-166.9
2019-08-01 10:18:33.578125,-163.99
2019-08-01 10:18:33.593750,-157.54
2019-08-01 10:18:33.609375,-147.41
2019-08-01 10:18:33.625000,-134.41
2019-08-01 10:18:33.640625,-119.81
2019-08-01 10:18:33.656250,-104.95
2019-08-01 10:18:33.671875,-90.77
2019-08-01 10:18:33.687500,-77.88
2019-08-01 10:18:33.703125,-66.64
2019-08-01 10:18:33.718750,-57.24
2019-08-01 10:18:33.734375,-49.67
2019-08-01 10:18:33.750000,-43.32
2019-08-01 10:18:33.765625,-36.95
2019-08-01 10:18:33.781250,-28.61
2019-08-01 10:18:33.796875,-16.19
2019-08-01 10:18:33.812500,1.9
2019-08-01 10:18:33.828125,26.05
2019-08-01 10:18:33.843750,55.1
2019-08-01 10:18:33.859375,86.53
2019-08-01 10:18:33.875000,117.08
2019-08-01 10:18:33.890625,143.78
2019-08-01 10:18:33.906250,164.41
2019-08-01 10:18:33.921875,177.69
2019-08-01 10:18:33.937500,182.97
2019-08-01 10:18:33.953125,180.16
2019-08-01 10:18:33.968750,169.85
2019-08-01 10:18:33.984375,153.73
2019-08-01 10:18:34.000000,134.49
2019-08-01 10:18:34.015625,115.28
2019-08-01 10:18:34.031250,98.77
2019-08-01 10:18:34.046875,86.21
2019-08-01 10:18:34.062500,77.2
2019-08-01 10:18:34.078125,70.05
2019-08-01 10:18:34.093750,62.78
2019-08-01 10:18:34.109375,54.07
2019-08-01 10:18:34.125000,43.88
2019-08-01 10:18:34.140625,33.34
2019-08-01 10:18:34.156250,23.99
2019-08-01 10:18:34.171875,16.84
2019-08-01 10:18:34.187500,11.55
2019-08-01 10:18:34.203125,6.5
2019-08-01 10:18:34.218750,-0.38
2019-08-01 10:18:34.234375,-10.53
2019-08-01 10:18:34.250000,-23.94
2019-08-01 10:18:34.265625,-39.17
2019-08-01 10:18:34.281250,-54.06
2019-08-01 10:18:34.296875,-66.94
2019-08-01 10:18:34.312500,-77.29
2019-08-01 10:18:34.328125,-85.63
2019-08-01 10:18:34.343750,-92.63
2019-08-01 10:18:34.359375,-98.31
2019-08-01 10:18:34.375000,-101.81
2019-08-01 10:18:34.390625,-102.17
2019-08-01 10:18:34.406250,-99.25
2019-08-01 10:18:34.421875,-94.39
2019-08-01 10:18:34.437500,-90.01
2019-08-01 10:18:34.453125,-88.44
2019-08-01 10:18:34.468750,-90.85
2019-08-01 10:18:34.484375,-96.75
2019-08-01 10:18:34.500000,-104.66
2019-08-01 10:18:34.515625,-113.12
2019-08-01 10:18:34.531250,-121.46
2019-08-01 10:18:34.546875,-129.7
2019-08-01 10:18:34.562500,-137.88
2019-08-01 10:18:34.578125,-145.26
2019-08-01 10:18:34.593750,-150.26
2019-08-01 10:18:34.609375,-151.06
2019-08-01 10:18:34.625000,-146.75
2019-08-01 10:18:34.640625,-138.09
2019-08-01 10:18:34.656250,-127.66
2019-08-01 10:18:34.671875,-118.75
2019-08-01 10:18:34.687500,-113.98
2019-08-01 10:18:34.703125,-114.05
2019-08-01 10:18:34.718750,-117.39
2019-08-01 10:18:34.734375,-120.91
2019-08-01 10:18:34.750000,-121.55
2019-08-01 10:18:34.765625,-117.6
2019-08-01 10:18:34.781250,-109.31
2019-08-01 10:18:34.796875,-98.45
2019-08-01 10:18:34.812500,-87.2
2019-08-01 10:18:34.828125,-77.19
2019-08-01 10:18:34.843750,-68.97
2019-08-01 10:18:34.859375,-62.03
2019-08-01 10:18:34.875000,-55.24
2019-08-01 10:18:34.890625,-47.26
2019-08-01 10:18:34.906250,-36.59
2019-08-01 10:18:34.921875,-21.73
2019-08-01 10:18:34.937500,-1.35
2019-08-01 10:18:34.953125,24.97
2019-08-01 10:18:34.968750,56.07
2019-08-01 10:18:34.984375,88.87
2019-08-01 10:18:35.000000,118.9
2019-08-01 10:18:35.015625,141.6
2019-08-01 10:18:35.031250,153.78
2019-08-01 10:18:35.046875,154.83
2019-08-01 10:18:35.062500,146.83
2019-08-01 10:18:35.078125,133.79
2019-08-01 10:18:35.093750,119.99
2019-08-01 10:18:35.109375,108.39
2019-08-01 10:18:35.125000,99.69
2019-08-01 10:18:35.140625,92.54
2019-08-01 10:18:35.156250,84.58
2019-08-01 10:18:35.171875,73.7
2019-08-01 10:18:35.187500,58.97
2019-08-01 10:18:35.203125,40.77
2019-08-01 10:18:35.218750,20.23
2019-08-01 10:18:35.234375,-1.47
2019-08-01 10:18:35.250000,-23.33
2019-08-01 10:18:35.265625,-44.42
2019-08-01 10:18:35.281250,-63.45
2019-08-01 10:18:35.296875,-78.55
2019-08-01 10:18:35.312500,-87.8
2019-08-01 10:18:35.328125,-89.94
2019-08-01 10:18:35.343750,-85.05
2019-08-01 10:18:35.359375,-74.53
2019-08-01 10:18:35.375000,-60.43
2019-08-01 10:18:35.390625,-44.7
2019-08-01 10:18:35.406250,-28.57
2019-08-01 10:18:35.421875,-12.53
2019-08-01 10:18:35.437500,3.37
2019-08-01 10:18:35.453125,18.92
2019-08-01 10:18:35.468750,33.5
2019-08-01 10:18:35.484375,46.15
2019-08-01 10:18:35.500000,55.87
2019-08-01 10:18:35.515625,61.85
2019-08-01 10:18:35.531250,63.49
2019-08-01 10:18:35.546875,60.44
2019-08-01 10:18:35.562500,52.5
2019-08-01 10:18:35.578125,40.23
2019-08-01 10:18:35.593750,24.56
2019-08-01 10:18:35.609375,6.75
2019-08-01 10:18:35.625000,-11.35
2019-08-01 10:18:35.640625,-27.45
2019-08-01 10:18:35.656250,-39.42
2019-08-01 10:18:35.671875,-46.21
2019-08-01 10:18:35.687500,-48.37
2019-08-01 10:18:35.703125,-47.98
2019-08-01 10:18:35.718750,-46.93
2019-08-01 10:18:35.734375,-47.0
2019-08-01 10:18:35.750000,-49.13
2019-08-01 10:18:35.765625,-52.87
2019-08-01 10:18:35.781250,-56.37
2019-08-01 10:18:35.796875,-57.13
2019-08-01 10:18:35.812500,-53.15
2019-08-01 10:18:35.828125,-43.55
2019-08-01 10:18:35.843750,-28.62
2019-08-01 10:18:35.859375,-8.15
2019-08-01 10:18:35.875000,16.95
2019-08-01 10:18:35.890625,44.65
2019-08-01 10:18:35.906250,72.65
2019-08-01 10:18:35.921875,99.48
2019-08-01 10:18:35.937500,124.64
2019-08-01 10:18:35.953125,148.24
2019-08-01 10:18:35.968750,170.46
2019-08-01 10:18:35.984375,191.17
2019-08-01 10:18:36.000000,211.46
2019-08-01 10:18:36.015625,230.95
2019-08-01 10:18:36.031250,247.46
2019-08-01 10:18:36.046875,258.13
2019-08-01 10:18:36.062500,261.05
2019-08-01 10:18:36.078125,255.94
2019-08-01 10:18:36.093750,244.19
2019-08-01 10:18:36.109375,228.39
2019-08-01 10:18:36.125000,200.81
2019-08-01 10:18:36.140625,161.45
2019-08-01 10:18:36.156250,117.17
2019-08-01 10:18:36.171875,76.32
2019-08-01 10:18:36.187500,42.75
2019-08-01 10:18:36.203125,15.83
2019-08-01 10:18:36.218750,-6.29
2019-08-01 10:18:36.234375,-24.62
2019-08-01 10:18:36.250000,-39.21
2019-08-01 10:18:36.265625,-50.32
2019-08-01 10:18:36.281250,-57.57
2019-08-01 10:18:36.296875,-62.21
2019-08-01 10:18:36.312500,-67.82
2019-08-01 10:18:36.328125,-77.34
2019-08-01 10:18:36.343750,-90.88
2019-08-01 10:18:36.359375,-105.32
2019-08-01 10:18:36.375000,-115.81
2019-08-01 10:18:36.390625,-117.92
2019-08-01 10:18:36.406250,-109.32
2019-08-01 10:18:36.421875,-88.88
2019-08-01 10:18:36.437500,-57.9
