2019-08-12 14:10:57.000000,-0.0
2019-08-12 14:10:57.015625,-0.0
2019-08-12 14:10:57.031250,-0.0
2019-08-12 14:10:57.046875,-0.0
2019-08-12 14:10:57.062500,-0.0
2019-08-12 14:10:57.078125,-0.0
2019-08-12 14:10:57.093750,-0.0
2019-08-12 14:10:57.109375,-0.0
2019-08-12 14:10:57.125000,-0.0
2019-08-12 14:10:57.140625,-0.0
2019-08-12 14:10:57.156250,0.0
2019-08-12 14:10:57.171875,0.01
2019-08-12 14:10:57.187500,0.01
2019-08-12 14:10:57.203125,-0.0
2019-08-12 14:10:57.218750,-0.03
2019-08-12 14:10:57.234375,-0.05
2019-08-12 14:10:57.250000,-0.05
2019-08-12 14:10:57.265625,0.0
2019-08-12 14:10:57.281250,0.13
2019-08-12 14:10:57.296875,0.36
2019-08-12 14:10:57.312500,0.66
2019-08-12 14:10:57.328125,1.01
2019-08-12 14:10:57.343750,1.37
2019-08-12 14:10:57.359375,1.72
2019-08-12 14:10:57.375000,2.06
2019-08-12 14:10:57.390625,2.4
2019-08-12 14:10:57.406250,2.79
2019-08-12 14:10:57.421875,3.24
2019-08-12 14:10:57.437500,3.8
2019-08-12 14:10:57.453125,4.44
2019-08-12 14:10:57.468750,5.09
2019-08-12 14:10:57.484375,5.73
2019-08-12 14:10:57.500000,6.33
2019-08-12 14:10:57.515625,6.9
2019-08-12 14:10:57.531250,7.49
2019-08-12 14:10:57.546875,8.19
2019-08-12 14:10:57.562500,9.06
2019-08-12 14:10:57.578125,10.19
2019-08-12 14:10:57.593750,11.52
2019-08-12 14:10:57.609375,12.93
2019-08-12 14:10:57.625000,14.3
2019-08-12 14:10:57.640625,15.55
2019-08-12 14:10:57.656250,16.69
2019-08-12 14:10:57.671875,17.86
2019-08-12 14:10:57.687500,19.27
2019-08-12 14:10:57.703125,21.07
2019-08-12 14:10:57.718750,23.52
2019-08-12 14:10:57.734375,26.48
2019-08-12 14:10:57.750000,29.72
2019-08-12 14:10:57.765625,32.94
2019-08-12 14:10:57.781250,35.96
2019-08-12 14:10:57.796875,38.81
2019-08-12 14:10:57.812500,41.76
2019-08-12 14:10:57.828125,45.24
2019-08-12 14:10:57.843750,49.6
2019-08-12 14:10:57.859375,55.28
2019-08-12 14:10:57.875000,62.03
2019-08-12 14:10:57.890625,69.37
2019-08-12 14:10:57.906250,76.73
2019-08-12 14:10:57.921875,83.69
2019-08-12 14:10:57.937500,90.23
2019-08-12 14:10:57.953125,96.76
2019-08-12 14:10:57.968750,103.97
2019-08-12 14:10:57.984375,112.49
2019-08-12 14:10:58.000000,123.03
2019-08-12 14:10:58.015625,135.27
2019-08-12 14:10:58.031250,148.52
2019-08-12 14:10:58.046875,161.86
2019-08-12 14:10:58.062500,174.53
2019-08-12 14:10:58.078125,186.33
2019-08-12 14:10:58.093750,197.66
2019-08-12 14:10:58.109375,209.84
2019-08-12 14:10:58.125000,221.75
2019-08-12 14:10:58.140625,236.05
2019-08-12 14:10:58.156250,253.76
2019-08-12 14:10:58.171875,275.22
2019-08-12 14:10:58.187500,299.13
2019-08-12 14:10:58.203125,322.17
2019-08-12 14:10:58.218750,339.42
2019-08-12 14:10:58.234375,345.73
2019-08-12 14:10:58.250000,337.61
2019-08-12 14:10:58.265625,314.55
2019-08-12 14:10:58.281250,279.65
2019-08-12 14:10:58.296875,237.59
2019-08-12 14:10:58.312500,193.15
2019-08-12 14:10:58.328125,149.39
2019-08-12 14:10:58.343750,107.09
2019-08-12 14:10:58.359375,65.38
2019-08-12 14:10:58.375000,23.21
2019-08-12 14:10:58.390625,-19.51
2019-08-12 14:10:58.406250,-61.56
2019-08-12 14:10:58.421875,-100.8
2019-08-12 14:10:58.437500,-135.84
2019-08-12 14:10:58.453125,-166.35
2019-08-12 14:10:58.468750,-193.29
2019-08-12 14:10:58.484375,-218.31
2019-08-12 14:10:58.500000,-243.05
2019-08-12 14:10:58.515625,-268.63
2019-08-12 14:10:58.531250,-295.47
2019-08-12 14:10:58.546875,-323.51
2019-08-12 14:10:58.562500,-352.06
2019-08-12 14:10:58.578125,-379.87
2019-08-12 14:10:58.593750,-404.85
2019-08-12 14:10:58.609375,-424.05
2019-08-12 14:10:58.625000,-434.16
2019-08-12 14:10:58.640625,-432.53
2019-08-12 14:10:58.656250,-418.33
2019-08-12 14:10:58.671875,-393.25
2019-08-12 14:10:58.687500,-361.17
2019-08-12 14:10:58.703125,-326.84
2019-08-12 14:10:58.718750,-294.38
2019-08-12 14:10:58.734375,-265.94
2019-08-12 14:10:58.750000,-241.44
2019-08-12 14:10:58.765625,-219.35
2019-08-12 14:10:58.781250,-198.02
2019-08-12 14:10:58.796875,-176.81
2019-08-12 14:10:58.812500,-156.29
2019-08-12 14:10:58.828125,-137.77
2019-08-12 14:10:58.843750,-122.15
2019-08-12 14:10:58.859375,-109.26
2019-08-12 14:10:58.875000,-97.79
2019-08-12 14:10:58.890625,-85.97
2019-08-12 14:10:58.906250,-72.66
2019-08-12 14:10:58.921875,-58.12
2019-08-12 14:10:58.937500,-43.92
2019-08-12 14:10:58.953125,-32.13
2019-08-12 14:10:58.968750,-24.09
2019-08-12 14:10:58.984375,-19.56
2019-08-12 14:10:59.000000,-16.75
2019-08-12 14:10:59.015625,-13.27
2019-08-12 14:10:59.031250,-7.47
2019-08-12 14:10:59.046875,0.65
2019-08-12 14:10:59.062500,9.47
2019-08-12 14:10:59.078125,16.63
2019-08-12 14:10:59.093750,20.39
2019-08-12 14:10:59.109375,20.62
2019-08-12 14:10:59.125000,18.88
2019-08-12 14:10:59.140625,17.72
2019-08-12 14:10:59.156250,19.2
2019-08-12 14:10:59.171875,23.85
2019-08-12 14:10:59.187500,30.31
2019-08-12 14:10:59.203125,36.04
2019-08-12 14:10:59.218750,38.66
2019-08-12 14:10:59.234375,37.19
2019-08-12 14:10:59.250000,32.69
2019-08-12 14:10:59.265625,27.69
2019-08-12 14:10:59.281250,24.92
2019-08-12 14:10:59.296875,25.75
2019-08-12 14:10:59.312500,29.56
2019-08-12 14:10:59.328125,33.96
2019-08-12 14:10:59.343750,36.26
2019-08-12 14:10:59.359375,34.95
2019-08-12 14:10:59.375000,30.63
2019-08-12 14:10:59.390625,25.64
2019-08-12 14:10:59.406250,22.61
2019-08-12 14:10:59.421875,22.97
2019-08-12 14:10:59.437500,26.08
2019-08-12 14:10:59.453125,29.66
2019-08-12 14:10:59.468750,31.17
2019-08-12 14:10:59.484375,29.33
2019-08-12 14:10:59.500000,24.83
2019-08-12 14:10:59.515625,19.91
2019-08-12 14:10:59.531250,17.05
2019-08-12 14:10:59.546875,17.49
2019-08-12 14:10:59.562500,20.59
2019-08-12 14:10:59.578125,24.18
2019-08-12 14:10:59.593750,25.84
2019-08-12 14:10:59.609375,24.28
2019-08-12 14:10:59.625000,20.06
2019-08-12 14:10:59.640625,15.29
2019-08-12 14:10:59.656250,12.32
2019-08-12 14:10:59.671875,12.44
2019-08-12 14:10:59.687500,15.07
2019-08-12 14:10:59.703125,18.19
2019-08-12 14:10:59.718750,19.54
2019-08-12 14:10:59.734375,18.02
2019-08-12 14:10:59.750000,14.37
2019-08-12 14:10:59.765625,10.65
2019-08-12 14:10:59.781250,8.95
2019-08-12 14:10:59.796875,10.01
2019-08-12 14:10:59.812500,12.79
2019-08-12 14:10:59.828125,15.01
2019-08-12 14:10:59.843750,14.56
2019-08-12 14:10:59.859375,10.84
2019-08-12 14:10:59.875000,5.15
2019-08-12 14:10:59.890625,0.04
2019-08-12 14:10:59.906250,-2.15
2019-08-12 14:10:59.921875,-0.54
2019-08-12 14:10:59.937500,3.74
2019-08-12 14:10:59.953125,8.24
2019-08-12 14:10:59.968750,10.44
2019-08-12 14:10:59.984375,9.18
2019-08-12 14:11:00.000000,5.17
2019-08-12 14:11:00.015625,0.58
2019-08-12 14:11:00.031250,-2.32
2019-08-12 14:11:00.046875,-2.42
2019-08-12 14:11:00.062500,-0.32
2019-08-12 14:11:00.078125,2.01
2019-08-12 14:11:00.093750,2.63
2019-08-12 14:11:00.109375,0.76
2019-08-12 14:11:00.125000,-2.69
2019-08-12 14:11:00.140625,-5.62
2019-08-12 14:11:00.156250,-6.17
2019-08-12 14:11:00.171875,-3.8
2019-08-12 14:11:00.187500,0.19
2019-08-12 14:11:00.203125,3.43
2019-08-12 14:11:00.218750,3.78
2019-08-12 14:11:00.234375,0.71
2019-08-12 14:11:00.250000,-4.37
2019-08-12 14:11:00.265625,-8.74
2019-08-12 14:11:00.281250,-9.96
2019-08-12 14:11:00.296875,-7.22
2019-08-12 14:11:00.312500,-1.84
2019-08-12 14:11:00.328125,3.38
2019-08-12 14:11:00.343750,5.73
2019-08-12 14:11:00.359375,4.13
2019-08-12 14:11:00.375000,-0.25
2019-08-12 14:11:00.390625,-4.79
2019-08-12 14:11:00.406250,-6.88
2019-08-12 14:11:00.421875,-5.52
2019-08-12 14:11:00.437500,-1.85
2019-08-12 14:11:00.453125,1.52
2019-08-12 14:11:00.468750,2.13
2019-08-12 14:11:00.484375,-0.79
2019-08-12 14:11:00.500000,-5.88
2019-08-12 14:11:00.515625,-10.38
2019-08-12 14:11:00.531250,-11.86
2019-08-12 14:11:00.546875,-9.55
2019-08-12 14:11:00.562500,-4.84
2019-08-12 14:11:00.578125,-0.42
2019-08-12 14:11:00.593750,1.34
2019-08-12 14:11:00.609375,-0.27
2019-08-12 14:11:00.625000,-3.94
2019-08-12 14:11:00.640625,-7.25
2019-08-12 14:11:00.656250,-8.09
2019-08-12 14:11:00.671875,-5.92
2019-08-12 14:11:00.687500,-2.01
2019-08-12 14:11:00.703125,1.38
2019-08-12 14:11:00.718750,2.37
2019-08-12 14:11:00.734375,0.56
2019-08-12 14:11:00.750000,-2.8
2019-08-12 14:11:00.765625,-5.57
2019-08-12 14:11:00.781250,-6.03
2019-08-12 14:11:00.796875,-3.94
2019-08-12 14:11:00.812500,-0.7
2019-08-12 14:11:00.828125,1.4
2019-08-12 14:11:00.843750,0.55
2019-08-12 14:11:00.859375,-3.47
2019-08-12 14:11:00.875000,-9.06
2019-08-12 14:11:00.890625,-13.49
2019-08-12 14:11:00.906250,-14.51
2019-08-12 14:11:00.921875,-11.56
2019-08-12 14:11:00.937500,-6.12
2019-08-12 14:11:00.953125,-1.04
2019-08-12 14:11:00.968750,1.13
2019-08-12 14:11:00.984375,-0.57
2019-08-12 14:11:01.000000,-4.92
2019-08-12 14:11:01.015625,-9.3
2019-08-12 14:11:01.031250,-11.19
2019-08-12 14:11:01.046875,-9.52
2019-08-12 14:11:01.062500,-5.18
2019-08-12 14:11:01.078125,-0.4
2019-08-12 14:11:01.093750,2.61
2019-08-12 14:11:01.109375,3.04
2019-08-12 14:11:01.125000,1.83
2019-08-12 14:11:01.140625,1.08
2019-08-12 14:11:01.156250,2.68
2019-08-12 14:11:01.171875,7.1
2019-08-12 14:11:01.187500,13.01
2019-08-12 14:11:01.203125,18.0
2019-08-12 14:11:01.218750,19.99
2019-08-12 14:11:01.234375,18.45
2019-08-12 14:11:01.250000,14.85
2019-08-12 14:11:01.265625,11.75
2019-08-12 14:11:01.281250,11.3
2019-08-12 14:11:01.296875,13.97
2019-08-12 14:11:01.312500,18.19
2019-08-12 14:11:01.328125,21.32
2019-08-12 14:11:01.343750,21.26
2019-08-12 14:11:01.359375,17.73
2019-08-12 14:11:01.375000,12.47
2019-08-12 14:11:01.390625,8.26
2019-08-12 14:11:01.406250,7.22
2019-08-12 14:11:01.421875,9.56
2019-08-12 14:11:01.437500,13.47
2019-08-12 14:11:01.453125,16.07
2019-08-12 14:11:01.468750,15.15
2019-08-12 14:11:01.484375,10.43
2019-08-12 14:11:01.500000,3.73
2019-08-12 14:11:01.515625,-2.04
2019-08-12 14:11:01.531250,-4.5
2019-08-12 14:11:01.546875,-3.08
2019-08-12 14:11:01.562500,0.7
2019-08-12 14:11:01.578125,4.15
2019-08-12 14:11:01.593750,4.92
2019-08-12 14:11:01.609375,2.39
2019-08-12 14:11:01.625000,-2.06
2019-08-12 14:11:01.640625,-5.83
2019-08-12 14:11:01.656250,-6.75
2019-08-12 14:11:01.671875,-4.3
2019-08-12 14:11:01.687500,0.04
2019-08-12 14:11:01.703125,3.68
2019-08-12 14:11:01.718750,4.55
2019-08-12 14:11:01.734375,2.36
2019-08-12 14:11:01.750000,-1.18
2019-08-12 14:11:01.765625,-3.34
2019-08-12 14:11:01.781250,-2.1
2019-08-12 14:11:01.796875,2.68
2019-08-12 14:11:01.812500,9.04
2019-08-12 14:11:01.828125,14.02
2019-08-12 14:11:01.843750,15.36
2019-08-12 14:11:01.859375,12.71
2019-08-12 14:11:01.875000,7.81
2019-08-12 14:11:01.890625,3.45
2019-08-12 14:11:01.906250,1.98
2019-08-12 14:11:01.921875,4.06
2019-08-12 14:11:01.937500,8.46
2019-08-12 14:11:01.953125,12.87
2019-08-12 14:11:01.968750,15.19
2019-08-12 14:11:01.984375,14.63
2019-08-12 14:11:02.000000,12.0
2019-08-12 14:11:02.015625,9.13
2019-08-12 14:11:02.031250,7.69
2019-08-12 14:11:02.046875,8.17
2019-08-12 14:11:02.062500,9.59
2019-08-12 14:11:02.078125,10.16
2019-08-12 14:11:02.093750,8.4
2019-08-12 14:11:02.109375,4.17
2019-08-12 14:11:02.125000,-1.12
2019-08-12 14:11:02.140625,-5.23
2019-08-12 14:11:02.156250,-6.33
2019-08-12 14:11:02.171875,-4.17
2019-08-12 14:11:02.187500,-0.23
2019-08-12 14:11:02.203125,3.05
2019-08-12 14:11:02.218750,3.62
2019-08-12 14:11:02.234375,0.95
2019-08-12 14:11:02.250000,-3.66
2019-08-12 14:11:02.265625,-7.9
2019-08-12 14:11:02.281250,-9.79
2019-08-12 14:11:02.296875,-8.69
2019-08-12 14:11:02.312500,-5.73
2019-08-12 14:11:02.328125,-2.95
2019-08-12 14:11:02.343750,-2.08
2019-08-12 14:11:02.359375,-3.46
2019-08-12 14:11:02.375000,-5.81
2019-08-12 14:11:02.390625,-7.15
2019-08-12 14:11:02.406250,-6.0
2019-08-12 14:11:02.421875,-2.5
2019-08-12 14:11:02.437500,1.53
2019-08-12 14:11:02.453125,3.58
2019-08-12 14:11:02.468750,1.96
2019-08-12 14:11:02.484375,-3.12
2019-08-12 14:11:02.500000,-9.52
2019-08-12 14:11:02.515625,-14.26
2019-08-12 14:11:02.531250,-15.13
2019-08-12 14:11:02.546875,-11.89
2019-08-12 14:11:02.562500,-6.29
2019-08-12 14:11:02.578125,-1.11
2019-08-12 14:11:02.593750,1.49
2019-08-12 14:11:02.609375,1.04
2019-08-12 14:11:02.625000,-1.07
2019-08-12 14:11:02.640625,-2.6
2019-08-12 14:11:02.656250,-1.82
2019-08-12 14:11:02.671875,1.46
2019-08-12 14:11:02.687500,5.72
2019-08-12 14:11:02.703125,8.74
2019-08-12 14:11:02.718750,8.87
2019-08-12 14:11:02.734375,6.12
2019-08-12 14:11:02.750000,2.23
2019-08-12 14:11:02.765625,-0.31
2019-08-12 14:11:02.781250,0.27
2019-08-12 14:11:02.796875,4.05
2019-08-12 14:11:02.812500,9.17
2019-08-12 14:11:02.828125,12.87
2019-08-12 14:11:02.843750,13.02
2019-08-12 14:11:02.859375,9.39
2019-08-12 14:11:02.875000,3.76
2019-08-12 14:11:02.890625,-1.03
2019-08-12 14:11:02.906250,-2.61
2019-08-12 14:11:02.921875,-0.47
2019-08-12 14:11:02.937500,3.91
2019-08-12 14:11:02.953125,7.86
2019-08-12 14:11:02.968750,9.17
2019-08-12 14:11:02.984375,7.31
2019-08-12 14:11:03.000000,3.68
2019-08-12 14:11:03.015625,0.79
2019-08-12 14:11:03.031250,0.66
2019-08-12 14:11:03.046875,3.61
2019-08-12 14:11:03.062500,8.05
2019-08-12 14:11:03.078125,11.37
2019-08-12 14:11:03.093750,11.48
2019-08-12 14:11:03.109375,8.06
2019-08-12 14:11:03.125000,2.78
2019-08-12 14:11:03.140625,-1.66
2019-08-12 14:11:03.156250,-3.0
2019-08-12 14:11:03.171875,-0.82
2019-08-12 14:11:03.187500,3.31
2019-08-12 14:11:03.203125,6.74
2019-08-12 14:11:03.218750,7.28
2019-08-12 14:11:03.234375,4.57
2019-08-12 14:11:03.250000,0.32
2019-08-12 14:11:03.265625,-2.72
2019-08-12 14:11:03.281250,-2.47
2019-08-12 14:11:03.296875,1.26
2019-08-12 14:11:03.312500,6.55
2019-08-12 14:11:03.328125,10.49
2019-08-12 14:11:03.343750,10.98
2019-08-12 14:11:03.359375,7.91
2019-08-12 14:11:03.375000,3.32
2019-08-12 14:11:03.390625,0.11
2019-08-12 14:11:03.406250,0.37
2019-08-12 14:11:03.421875,4.19
2019-08-12 14:11:03.437500,9.59
2019-08-12 14:11:03.453125,13.66
2019-08-12 14:11:03.468750,14.27
2019-08-12 14:11:03.484375,11.18
2019-08-12 14:11:03.500000,6.08
2019-08-12 14:11:03.515625,1.55
2019-08-12 14:11:03.531250,-0.43
2019-08-12 14:11:03.546875,0.43
2019-08-12 14:11:03.562500,2.67
2019-08-12 14:11:03.578125,4.05
2019-08-12 14:11:03.593750,2.95
2019-08-12 14:11:03.609375,-0.6
2019-08-12 14:11:03.625000,-4.9
2019-08-12 14:11:03.640625,-7.6
2019-08-12 14:11:03.656250,-7.06
2019-08-12 14:11:03.671875,-3.55
2019-08-12 14:11:03.687500,0.89
2019-08-12 14:11:03.703125,3.5
2019-08-12 14:11:03.718750,2.26
2019-08-12 14:11:03.734375,-2.83
2019-08-12 14:11:03.750000,-9.69
2019-08-12 14:11:03.765625,-15.27
2019-08-12 14:11:03.781250,-17.15
2019-08-12 14:11:03.796875,-14.74
2019-08-12 14:11:03.812500,-9.59
2019-08-12 14:11:03.828125,-4.42
2019-08-12 14:11:03.843750,-1.71
2019-08-12 14:11:03.859375,-2.33
2019-08-12 14:11:03.875000,-5.24
2019-08-12 14:11:03.890625,-8.21
2019-08-12 14:11:03.906250,-9.23
2019-08-12 14:11:03.921875,-7.64
2019-08-12 14:11:03.937500,-4.57
2019-08-12 14:11:03.953125,-2.14
2019-08-12 14:11:03.968750,-2.08
2019-08-12 14:11:03.984375,-4.66
2019-08-12 14:11:04.000000,-8.43
2019-08-12 14:11:04.015625,-11.1
2019-08-12 14:11:04.031250,-10.94
2019-08-12 14:11:04.046875,-7.84
2019-08-12 14:11:04.062500,-3.35
2019-08-12 14:11:04.078125,0.25
2019-08-12 14:11:04.093750,1.45
2019-08-12 14:11:04.109375,0.36
2019-08-12 14:11:04.125000,-1.28
2019-08-12 14:11:04.140625,-1.27
2019-08-12 14:11:04.156250,1.71
2019-08-12 14:11:04.171875,7.17
2019-08-12 14:11:04.187500,12.99
2019-08-12 14:11:04.203125,16.58
2019-08-12 14:11:04.218750,16.27
2019-08-12 14:11:04.234375,12.29
2019-08-12 14:11:04.250000,6.67
2019-08-12 14:11:04.265625,2.16
2019-08-12 14:11:04.281250,0.81
2019-08-12 14:11:04.296875,2.9
2019-08-12 14:11:04.312500,6.84
2019-08-12 14:11:04.328125,10.12
2019-08-12 14:11:04.343750,10.73
2019-08-12 14:11:04.359375,8.31
2019-08-12 14:11:04.375000,4.35
2019-08-12 14:11:04.390625,1.27
2019-08-12 14:11:04.406250,0.97
2019-08-12 14:11:04.421875,3.66
2019-08-12 14:11:04.437500,7.61
2019-08-12 14:11:04.453125,10.14
2019-08-12 14:11:04.468750,9.06
2019-08-12 14:11:04.484375,4.05
2019-08-12 14:11:04.500000,-3.17
2019-08-12 14:11:04.515625,-9.73
2019-08-12 14:11:04.531250,-13.17
2019-08-12 14:11:04.546875,-12.76
2019-08-12 14:11:04.562500,-9.74
2019-08-12 14:11:04.578125,-6.5
2019-08-12 14:11:04.593750,-5.14
2019-08-12 14:11:04.609375,-6.18
2019-08-12 14:11:04.625000,-8.44
2019-08-12 14:11:04.640625,-9.81
2019-08-12 14:11:04.656250,-8.61
2019-08-12 14:11:04.671875,-4.76
2019-08-12 14:11:04.687500,0.22
2019-08-12 14:11:04.703125,3.94
2019-08-12 14:11:04.718750,4.6
2019-08-12 14:11:04.734375,2.08
2019-08-12 14:11:04.750000,-1.97
2019-08-12 14:11:04.765625,-5.06
2019-08-12 14:11:04.781250,-5.29
2019-08-12 14:11:04.796875,-2.45
2019-08-12 14:11:04.812500,1.84
2019-08-12 14:11:04.828125,5.11
2019-08-12 14:11:04.843750,5.47
2019-08-12 14:11:04.859375,2.77
2019-08-12 14:11:04.875000,-1.29
2019-08-12 14:11:04.890625,-4.17
2019-08-12 14:11:04.906250,-3.98
2019-08-12 14:11:04.921875,-0.6
2019-08-12 14:11:04.937500,4.28
2019-08-12 14:11:04.953125,8.13
2019-08-12 14:11:04.968750,9.05
2019-08-12 14:11:04.984375,6.82
2019-08-12 14:11:05.000000,3.0
2019-08-12 14:11:05.015625,-0.02
2019-08-12 14:11:05.031250,-0.39
2019-08-12 14:11:05.046875,2.12
2019-08-12 14:11:05.062500,6.11
2019-08-12 14:11:05.078125,9.36
2019-08-12 14:11:05.093750,10.18
2019-08-12 14:11:05.109375,8.38
2019-08-12 14:11:05.125000,5.35
2019-08-12 14:11:05.140625,3.12
2019-08-12 14:11:05.156250,3.2
2019-08-12 14:11:05.171875,5.52
2019-08-12 14:11:05.187500,8.56
2019-08-12 14:11:05.203125,10.22
2019-08-12 14:11:05.218750,9.04
2019-08-12 14:11:05.234375,5.19
2019-08-12 14:11:05.250000,0.33
2019-08-12 14:11:05.265625,-3.38
2019-08-12 14:11:05.281250,-4.57
2019-08-12 14:11:05.296875,-3.46
2019-08-12 14:11:05.312500,-1.75
2019-08-12 14:11:05.328125,-1.52
2019-08-12 14:11:05.343750,-3.95
2019-08-12 14:11:05.359375,-8.55
2019-08-12 14:11:05.375000,-13.34
2019-08-12 14:11:05.390625,-15.97
2019-08-12 14:11:05.406250,-15.12
2019-08-12 14:11:05.421875,-11.32
2019-08-12 14:11:05.437500,-6.66
2019-08-12 14:11:05.453125,-3.72
2019-08-12 14:11:05.468750,-4.08
2019-08-12 14:11:05.484375,-7.42
2019-08-12 14:11:05.500000,-11.68
2019-08-12 14:11:05.515625,-14.26
2019-08-12 14:11:05.531250,-13.46
2019-08-12 14:11:05.546875,-9.45
2019-08-12 14:11:05.562500,-4.14
2019-08-12 14:11:05.578125,-0.0
2019-08-12 14:11:05.593750,1.28
2019-08-12 14:11:05.609375,-0.22
2019-08-12 14:11:05.625000,-2.86
2019-08-12 14:11:05.640625,-4.47
2019-08-12 14:11:05.656250,-3.65
2019-08-12 14:11:05.671875,-0.62
2019-08-12 14:11:05.687500,2.92
2019-08-12 14:11:05.703125,4.8
2019-08-12 14:11:05.718750,3.65
2019-08-12 14:11:05.734375,-0.21
2019-08-12 14:11:05.750000,-4.84
2019-08-12 14:11:05.765625,-7.71
2019-08-12 14:11:05.781250,-7.13
2019-08-12 14:11:05.796875,-3.2
2019-08-12 14:11:05.812500,2.15
2019-08-12 14:11:05.828125,6.15
2019-08-12 14:11:05.843750,6.69
2019-08-12 14:11:05.859375,3.5
2019-08-12 14:11:05.875000,-1.75
2019-08-12 14:11:05.890625,-6.43
2019-08-12 14:11:05.906250,-8.5
2019-08-12 14:11:05.921875,-7.71
2019-08-12 14:11:05.937500,-5.66
2019-08-12 14:11:05.953125,-4.87
2019-08-12 14:11:05.968750,-7.15
2019-08-12 14:11:05.984375,-12.53
2019-08-12 14:11:06.000000,-19.19
2019-08-12 14:11:06.015625,-24.61
2019-08-12 14:11:06.031250,-27.12
2019-08-12 14:11:06.046875,-27.04
2019-08-12 14:11:06.062500,-26.53
2019-08-12 14:11:06.078125,-28.29
2019-08-12 14:11:06.093750,-33.89
2019-08-12 14:11:06.109375,-42.65
2019-08-12 14:11:06.125000,-51.88
2019-08-12 14:11:06.140625,-58.34
2019-08-12 14:11:06.156250,-60.17
2019-08-12 14:11:06.171875,-57.98
2019-08-12 14:11:06.187500,-54.63
2019-08-12 14:11:06.203125,-53.58
2019-08-12 14:11:06.218750,-56.92
2019-08-12 14:11:06.234375,-64.18
2019-08-12 14:11:06.250000,-72.63
2019-08-12 14:11:06.265625,-78.86
2019-08-12 14:11:06.281250,-80.54
2019-08-12 14:11:06.296875,-77.41
2019-08-12 14:11:06.312500,-70.84
2019-08-12 14:11:06.328125,-62.52
2019-08-12 14:11:06.343750,-53.36
2019-08-12 14:11:06.359375,-43.15
2019-08-12 14:11:06.375000,-31.37
2019-08-12 14:11:06.390625,-18.26
2019-08-12 14:11:06.406250,-5.21
2019-08-12 14:11:06.421875,5.7
2019-08-12 14:11:06.437500,12.91
2019-08-12 14:11:06.453125,16.51
2019-08-12 14:11:06.468750,18.26
2019-08-12 14:11:06.484375,20.89
2019-08-12 14:11:06.500000,27.04
2019-08-12 14:11:06.515625,38.44
2019-08-12 14:11:06.531250,55.73
2019-08-12 14:11:06.546875,78.66
2019-08-12 14:11:06.562500,106.37
2019-08-12 14:11:06.578125,137.28
2019-08-12 14:11:06.593750,168.84
2019-08-12 14:11:06.609375,197.53
2019-08-12 14:11:06.625000,219.34
2019-08-12 14:11:06.640625,230.75
2019-08-12 14:11:06.656250,230.31
2019-08-12 14:11:06.671875,218.98
2019-08-12 14:11:06.687500,199.65
2019-08-12 14:11:06.703125,175.83
2019-08-12 14:11:06.718750,150.14
2019-08-12 14:11:06.734375,123.36
2019-08-12 14:11:06.750000,94.33
2019-08-12 14:11:06.765625,60.57
2019-08-12 14:11:06.781250,19.4
2019-08-12 14:11:06.796875,-31.09
2019-08-12 14:11:06.812500,-91.13
2019-08-12 14:11:06.828125,-158.27
2019-08-12 14:11:06.843750,-227.45
2019-08-12 14:11:06.859375,-291.21
2019-08-12 14:11:06.875000,-340.99
2019-08-12 14:11:06.890625,-369.09
2019-08-12 14:11:06.906250,-371.14
2019-08-12 14:11:06.921875,-348.28
2019-08-12 14:11:06.937500,-307.7
2019-08-12 14:11:06.953125,-260.63
2019-08-12 14:11:06.968750,-218.22
2019-08-12 14:11:06.984375,-187.19
2019-08-12 14:11:07.000000,-167.43
2019-08-12 14:11:07.015625,-153.24
2019-08-12 14:11:07.031250,-137.52
2019-08-12 14:11:07.046875,-116.23
2019-08-12 14:11:07.062500,-90.61
2019-08-12 14:11:07.078125,-65.8
2019-08-12 14:11:07.093750,-47.05
2019-08-12 14:11:07.109375,-35.56
2019-08-12 14:11:07.125000,-27.76
2019-08-12 14:11:07.140625,-17.25
2019-08-12 14:11:07.156250,1.33
2019-08-12 14:11:07.171875,29.25
2019-08-12 14:11:07.187500,63.2
2019-08-12 14:11:07.203125,97.73
2019-08-12 14:11:07.218750,128.48
2019-08-12 14:11:07.234375,154.29
2019-08-12 14:11:07.250000,177.04
2019-08-12 14:11:07.265625,199.42
2019-08-12 14:11:07.281250,222.97
2019-08-12 14:11:07.296875,246.88
2019-08-12 14:11:07.312500,268.54
2019-08-12 14:11:07.328125,284.96
2019-08-12 14:11:07.343750,294.45
2019-08-12 14:11:07.359375,297.34
2019-08-12 14:11:07.375000,295.69
2019-08-12 14:11:07.390625,292.25
2019-08-12 14:11:07.406250,289.37
2019-08-12 14:11:07.421875,288.03
2019-08-12 14:11:07.437500,287.64
2019-08-12 14:11:07.453125,286.4
2019-08-12 14:11:07.468750,282.43
2019-08-12 14:11:07.484375,274.72
2019-08-12 14:11:07.500000,263.22
2019-08-12 14:11:07.515625,248.66
2019-08-12 14:11:07.531250,232.04
2019-08-12 14:11:07.546875,214.03
2019-08-12 14:11:07.562500,195.18
2019-08-12 14:11:07.578125,174.76
2019-08-12 14:11:07.593750,151.48
2019-08-12 14:11:07.609375,124.24
2019-08-12 14:11:07.625000,92.89
2019-08-12 14:11:07.640625,57.87
2019-08-12 14:11:07.656250,20.04
2019-08-12 14:11:07.671875,-19.59
2019-08-12 14:11:07.687500,-59.91
2019-08-12 14:11:07.703125,-99.77
2019-08-12 14:11:07.718750,-136.72
2019-08-12 14:11:07.734375,-168.73
2019-08-12 14:11:07.750000,-195.75
2019-08-12 14:11:07.765625,-217.01
2019-08-12 14:11:07.781250,-231.96
2019-08-12 14:11:07.796875,-240.51
2019-08-12 14:11:07.812500,-243.22
2019-08-12 14:11:07.828125,-240.89
2019-08-12 14:11:07.843750,-234.27
2019-08-12 14:11:07.859375,-223.88
2019-08-12 14:11:07.875000,-210.13
2019-08-12 14:11:07.890625,-193.36
2019-08-12 14:11:07.906250,-173.89
2019-08-12 14:11:07.921875,-152.8
2019-08-12 14:11:07.937500,-131.92
2019-08-12 14:11:07.953125,-113.5
2019-08-12 14:11:07.968750,-99.33
2019-08-12 14:11:07.984375,-90.01
2019-08-12 14:11:08.000000,-84.86
2019-08-12 14:11:08.015625,-82.29
2019-08-12 14:11:08.031250,-80.37
2019-08-12 14:11:08.046875,-77.53
2019-08-12 14:11:08.062500,-73.59
2019-08-12 14:11:08.078125,-68.74
2019-08-12 14:11:08.093750,-64.74
2019-08-12 14:11:08.109375,-63.83
2019-08-12 14:11:08.125000,-67.88
2019-08-12 14:11:08.140625,-77.82
2019-08-12 14:11:08.156250,-93.0
2019-08-12 14:11:08.171875,-110.55
2019-08-12 14:11:08.187500,-125.12
2019-08-12 14:11:08.203125,-130.15
2019-08-12 14:11:08.218750,-120.12
2019-08-12 14:11:08.234375,-93.02
2019-08-12 14:11:08.250000,-51.64
2019-08-12 14:11:08.265625,-2.94
2019-08-12 14:11:08.281250,44.31
2019-08-12 14:11:08.296875,83.13
2019-08-12 14:11:08.312500,110.9
2019-08-12 14:11:08.328125,130.03
2019-08-12 14:11:08.343750,146.42
2019-08-12 14:11:08.359375,165.07
2019-08-12 14:11:08.375000,187.44
2019-08-12 14:11:08.390625,209.64
2019-08-12 14:11:08.406250,225.32
2019-08-12 14:11:08.421875,227.61
2019-08-12 14:11:08.437500,211.48
2019-08-12 14:11:08.453125,174.81
2019-08-12 14:11:08.468750,119.48
2019-08-12 14:11:08.484375,51.49
2019-08-12 14:11:08.500000,-20.11
2019-08-12 14:11:08.515625,-85.26
2019-08-12 14:11:08.531250,-135.61
2019-08-12 14:11:08.546875,-166.82
2019-08-12 14:11:08.562500,-179.57
2019-08-12 14:11:08.578125,-178.19
2019-08-12 14:11:08.593750,-168.21
2019-08-12 14:11:08.609375,-153.89
2019-08-12 14:11:08.625000,-137.17
2019-08-12 14:11:08.640625,-118.54
2019-08-12 14:11:08.656250,-98.02
2019-08-12 14:11:08.671875,-75.93
2019-08-12 14:11:08.687500,-52.44
2019-08-12 14:11:08.703125,-27.26
2019-08-12 14:11:08.718750,0.15
2019-08-12 14:11:08.734375,29.28
2019-08-12 14:11:08.750000,57.37
2019-08-12 14:11:08.765625,79.58
2019-08-12 14:11:08.781250,90.91
2019-08-12 14:11:08.796875,89.61
2019-08-12 14:11:08.812500,79.04
2019-08-12 14:11:08.828125,66.86
2019-08-12 14:11:08.843750,61.33
2019-08-12 14:11:08.859375,67.02
2019-08-12 14:11:08.875000,82.71
2019-08-12 14:11:08.890625,102.5
2019-08-12 14:11:08.906250,119.66
2019-08-12 14:11:08.921875,130.28
2019-08-12 14:11:08.937500,135.18
2019-08-12 14:11:08.953125,138.71
2019-08-12 14:11:08.968750,145.52
2019-08-12 14:11:08.984375,157.83
2019-08-12 14:11:09.000000,174.35
2019-08-12 14:11:09.015625,191.62
2019-08-12 14:11:09.031250,205.92
2019-08-12 14:11:09.046875,214.46
2019-08-12 14:11:09.062500,214.82
2019-08-12 14:11:09.078125,203.98
2019-08-12 14:11:09.093750,177.87
2019-08-12 14:11:09.109375,132.47
2019-08-12 14:11:09.125000,66.05
2019-08-12 14:11:09.140625,-18.6
2019-08-12 14:11:09.156250,-113.47
2019-08-12 14:11:09.171875,-207.6
2019-08-12 14:11:09.187500,-288.38
2019-08-12 14:11:09.203125,-347.18
2019-08-12 14:11:09.218750,-381.88
2019-08-12 14:11:09.234375,-396.66
2019-08-12 14:11:09.250000,-399.02
2019-08-12 14:11:09.265625,-395.88
2019-08-12 14:11:09.281250,-391.01
2019-08-12 14:11:09.296875,-384.49
2019-08-12 14:11:09.312500,-374.79
2019-08-12 14:11:09.328125,-360.49
2019-08-12 14:11:09.343750,-341.44
2019-08-12 14:11:09.359375,-318.31
2019-08-12 14:11:09.375000,-291.81
2019-08-12 14:11:09.390625,-262.18
2019-08-12 14:11:09.406250,-229.46
2019-08-12 14:11:09.421875,-195.84
2019-08-12 14:11:09.437500,-161.86
2019-08-12 14:11:09.453125,-127.61
2019-08-12 14:11:09.468750,-92.91
2019-08-12 14:11:09.484375,-57.47
2019-08-12 14:11:09.500000,-21.12
2019-08-12 14:11:09.515625,15.73
2019-08-12 14:11:09.531250,51.74
2019-08-12 14:11:09.546875,84.61
2019-08-12 14:11:09.562500,111.72
2019-08-12 14:11:09.578125,131.13
2019-08-12 14:11:09.593750,141.93
2019-08-12 14:11:09.609375,144.99
2019-08-12 14:11:09.625000,142.56
2019-08-12 14:11:09.640625,137.93
2019-08-12 14:11:09.656250,134.77
2019-08-12 14:11:09.671875,136.87
2019-08-12 14:11:09.687500,147.48
2019-08-12 14:11:09.703125,168.31
2019-08-12 14:11:09.718750,198.83
2019-08-12 14:11:09.734375,235.37
2019-08-12 14:11:09.750000,271.89
2019-08-12 14:11:09.765625,301.6
2019-08-12 14:11:09.781250,319.2
2019-08-12 14:11:09.796875,322.18
2019-08-12 14:11:09.812500,310.73
2019-08-12 14:11:09.828125,286.01
2019-08-12 14:11:09.843750,248.63
2019-08-12 14:11:09.859375,198.32
2019-08-12 14:11:09.875000,135.29
2019-08-12 14:11:09.890625,62.89
2019-08-12 14:11:09.906250,-11.08
2019-08-12 14:11:09.921875,-75.47
2019-08-12 14:11:09.937500,-118.99
2019-08-12 14:11:09.953125,-134.14
2019-08-12 14:11:09.968750,-119.61
2019-08-12 14:11:09.984375,-80.28
2019-08-12 14:11:10.000000,-24.88
2019-08-12 14:11:10.015625,36.86
2019-08-12 14:11:10.031250,96.7
2019-08-12 14:11:10.046875,149.2
2019-08-12 14:11:10.062500,192.02
2019-08-12 14:11:10.078125,225.34
2019-08-12 14:11:10.093750,251.05
2019-08-12 14:11:10.109375,271.57
2019-08-12 14:11:10.125000,288.25
2019-08-12 14:11:10.140625,300.28
2019-08-12 14:11:10.156250,304.54
2019-08-12 14:11:10.171875,297.36
2019-08-12 14:11:10.187500,276.89
2019-08-12 14:11:10.203125,244.83
2019-08-12 14:11:10.218750,206.27
2019-08-12 14:11:10.234375,167.31
2019-08-12 14:11:10.250000,131.9
2019-08-12 14:11:10.265625,99.47
2019-08-12 14:11:10.281250,65.89
2019-08-12 14:11:10.296875,25.61
2019-08-12 14:11:10.312500,-24.74
2019-08-12 14:11:10.328125,-84.56
2019-08-12 14:11:10.343750,-149.13
2019-08-12 14:11:10.359375,-211.82
2019-08-12 14:11:10.375000,-266.91
2019-08-12 14:11:10.390625,-311.43
2019-08-12 14:11:10.406250,-345.0
2019-08-12 14:11:10.421875,-368.32
2019-08-12 14:11:10.437500,-383.28
2019-08-12 14:11:10.453125,-389.74
2019-08-12 14:11:10.468750,-386.69
2019-08-12 14:11:10.484375,-373.8
2019-08-12 14:11:10.500000,-352.48
2019-08-12 14:11:10.515625,-326.04
2019-08-12 14:11:10.531250,-299.09
2019-08-12 14:11:10.546875,-276.05
2019-08-12 14:11:10.562500,-260.04
2019-08-12 14:11:10.578125,-252.4
2019-08-12 14:11:10.593750,-252.54
2019-08-12 14:11:10.609375,-258.4
2019-08-12 14:11:10.625000,-267.79
2019-08-12 14:11:10.640625,-278.72
2019-08-12 14:11:10.656250,-289.61
2019-08-12 14:11:10.671875,-299.09
2019-08-12 14:11:10.687500,-305.85
2019-08-12 14:11:10.703125,-308.64
2019-08-12 14:11:10.718750,-306.49
2019-08-12 14:11:10.734375,-298.71
2019-08-12 14:11:10.750000,-285.2
2019-08-12 14:11:10.765625,-266.41
2019-08-12 14:11:10.781250,-242.93
2019-08-12 14:11:10.796875,-215.22
2019-08-12 14:11:10.812500,-183.5
2019-08-12 14:11:10.828125,-148.04
2019-08-12 14:11:10.843750,-109.46
2019-08-12 14:11:10.859375,-69.15
2019-08-12 14:11:10.875000,-28.86
2019-08-12 14:11:10.890625,9.51
2019-08-12 14:11:10.906250,44.53
2019-08-12 14:11:10.921875,76.05
2019-08-12 14:11:10.937500,105.23
2019-08-12 14:11:10.953125,134.34
2019-08-12 14:11:10.968750,166.15
2019-08-12 14:11:10.984375,203.01
2019-08-12 14:11:11.000000,245.8
2019-08-12 14:11:11.015625,292.83
2019-08-12 14:11:11.031250,338.98
2019-08-12 14:11:11.046875,376.3
2019-08-12 14:11:11.062500,396.04
2019-08-12 14:11:11.078125,392.01
2019-08-12 14:11:11.093750,363.61
2019-08-12 14:11:11.109375,316.73
2019-08-12 14:11:11.125000,261.93
2019-08-12 14:11:11.140625,210.8
2019-08-12 14:11:11.156250,171.97
2019-08-12 14:11:11.171875,148.92
2019-08-12 14:11:11.187500,140.02
2019-08-12 14:11:11.203125,140.07
2019-08-12 14:11:11.218750,142.39
2019-08-12 14:11:11.234375,140.12
2019-08-12 14:11:11.250000,127.38
2019-08-12 14:11:11.265625,100.45
2019-08-12 14:11:11.281250,59.04
2019-08-12 14:11:11.296875,7.34
2019-08-12 14:11:11.312500,-46.66
2019-08-12 14:11:11.328125,-93.39
2019-08-12 14:11:11.343750,-125.06
2019-08-12 14:11:11.359375,-138.16
2019-08-12 14:11:11.375000,-133.8
2019-08-12 14:11:11.390625,-115.92
2019-08-12 14:11:11.406250,-88.77
2019-08-12 14:11:11.421875,-54.94
2019-08-12 14:11:11.437500,-15.8
2019-08-12 14:11:11.453125,25.7
2019-08-12 14:11:11.468750,65.15
2019-08-12 14:11:11.484375,95.43
2019-08-12 14:11:11.500000,110.37
2019-08-12 14:11:11.515625,108.52
2019-08-12 14:11:11.531250,95.01
2019-08-12 14:11:11.546875,79.98
2019-08-12 14:11:11.562500,73.86
2019-08-12 14:11:11.578125,82.27
2019-08-12 14:11:11.593750,102.96
2019-08-12 14:11:11.609375,128.06
2019-08-12 14:11:11.625000,148.69
2019-08-12 14:11:11.640625,160.53
2019-08-12 14:11:11.656250,166.1
2019-08-12 14:11:11.671875,173.05
2019-08-12 14:11:11.687500,189.59
2019-08-12 14:11:11.703125,219.23
2019-08-12 14:11:11.718750,259.83
2019-08-12 14:11:11.734375,304.6
2019-08-12 14:11:11.750000,346.27
2019-08-12 14:11:11.765625,379.82
2019-08-12 14:11:11.781250,403.69
2019-08-12 14:11:11.796875,418.79
2019-08-12 14:11:11.812500,426.48
2019-08-12 14:11:11.828125,426.89
2019-08-12 14:11:11.843750,418.58
2019-08-12 14:11:11.859375,401.8
2019-08-12 14:11:11.875000,376.03
2019-08-12 14:11:11.890625,341.92
2019-08-12 14:11:11.906250,301.53
2019-08-12 14:11:11.921875,258.23
2019-08-12 14:11:11.937500,215.75
2019-08-12 14:11:11.953125,176.91
2019-08-12 14:11:11.968750,142.62
2019-08-12 14:11:11.984375,111.76
2019-08-12 14:11:12.000000,81.93
2019-08-12 14:11:12.015625,49.38
2019-08-12 14:11:12.031250,12.17
2019-08-12 14:11:12.046875,-29.58
2019-08-12 14:11:12.062500,-74.07
2019-08-12 14:11:12.078125,-118.78
2019-08-12 14:11:12.093750,-161.42
2019-08-12 14:11:12.109375,-200.26
2019-08-12 14:11:12.125000,-233.71
2019-08-12 14:11:12.140625,-259.72
2019-08-12 14:11:12.156250,-276.0
2019-08-12 14:11:12.171875,-280.04
2019-08-12 14:11:12.187500,-270.48
2019-08-12 14:11:12.203125,-248.16
2019-08-12 14:11:12.218750,-216.06
2019-08-12 14:11:12.234375,-178.56
2019-08-12 14:11:12.250000,-140.01
2019-08-12 14:11:12.265625,-103.59
2019-08-12 14:11:12.281250,-71.08
2019-08-12 14:11:12.296875,-43.99
2019-08-12 14:11:12.312500,-24.22
2019-08-12 14:11:12.328125,-14.97
2019-08-12 14:11:12.343750,-19.92
2019-08-12 14:11:12.359375,-41.28
2019-08-12 14:11:12.375000,-78.07
2019-08-12 14:11:12.390625,-125.53
2019-08-12 14:11:12.406250,-176.41
2019-08-12 14:11:12.421875,-223.1
2019-08-12 14:11:12.437500,-260.59
2019-08-12 14:11:12.453125,-287.59
2019-08-12 14:11:12.468750,-306.65
2019-08-12 14:11:12.484375,-321.97
2019-08-12 14:11:12.500000,-336.89
2019-08-12 14:11:12.515625,-352.43
2019-08-12 14:11:12.531250,-367.25
2019-08-12 14:11:12.546875,-378.93
2019-08-12 14:11:12.562500,-385.1
2019-08-12 14:11:12.578125,-385.65
2019-08-12 14:11:12.593750,-380.04
2019-08-12 14:11:12.609375,-367.18
2019-08-12 14:11:12.625000,-345.35
2019-08-12 14:11:12.640625,-312.78
2019-08-12 14:11:12.656250,-269.02
2019-08-12 14:11:12.671875,-216.19
2019-08-12 14:11:12.687500,-159.75
2019-08-12 14:11:12.703125,-107.92
2019-08-12 14:11:12.718750,-69.44
2019-08-12 14:11:12.734375,-49.78
2019-08-12 14:11:12.750000,-48.68
2019-08-12 14:11:12.765625,-58.81
2019-08-12 14:11:12.781250,-67.78
2019-08-12 14:11:12.796875,-62.97
2019-08-12 14:11:12.812500,-36.97
2019-08-12 14:11:12.828125,9.17
2019-08-12 14:11:12.843750,66.55
2019-08-12 14:11:12.859375,122.66
2019-08-12 14:11:12.875000,166.96
2019-08-12 14:11:12.890625,194.57
2019-08-12 14:11:12.906250,206.87
2019-08-12 14:11:12.921875,209.21
2019-08-12 14:11:12.937500,207.3
2019-08-12 14:11:12.953125,204.79
2019-08-12 14:11:12.968750,202.86
2019-08-12 14:11:12.984375,201.4
2019-08-12 14:11:13.000000,200.44
2019-08-12 14:11:13.015625,200.95
2019-08-12 14:11:13.031250,204.24
2019-08-12 14:11:13.046875,210.96
2019-08-12 14:11:13.062500,220.31
2019-08-12 14:11:13.078125,229.87
2019-08-12 14:11:13.093750,236.48
2019-08-12 14:11:13.109375,237.62
2019-08-12 14:11:13.125000,232.35
2019-08-12 14:11:13.140625,221.8
2019-08-12 14:11:13.156250,208.58
2019-08-12 14:11:13.171875,195.61
2019-08-12 14:11:13.187500,184.88
2019-08-12 14:11:13.203125,176.74
2019-08-12 14:11:13.218750,169.72
2019-08-12 14:11:13.234375,161.24
2019-08-12 14:11:13.250000,148.75
2019-08-12 14:11:13.265625,130.56
2019-08-12 14:11:13.281250,106.2
2019-08-12 14:11:13.296875,76.32
2019-08-12 14:11:13.312500,42.05
2019-08-12 14:11:13.328125,4.44
2019-08-12 14:11:13.343750,-35.77
2019-08-12 14:11:13.359375,-78.08
2019-08-12 14:11:13.375000,-121.87
2019-08-12 14:11:13.390625,-165.6
2019-08-12 14:11:13.406250,-206.64
2019-08-12 14:11:13.421875,-241.4
2019-08-12 14:11:13.437500,-266.0
2019-08-12 14:11:13.453125,-277.01
2019-08-12 14:11:13.468750,-272.12
2019-08-12 14:11:13.484375,-249.63
2019-08-12 14:11:13.500000,-209.46
2019-08-12 14:11:13.515625,-153.34
2019-08-12 14:11:13.531250,-84.25
2019-08-12 14:11:13.546875,-6.25
2019-08-12 14:11:13.562500,75.79
2019-08-12 14:11:13.578125,156.44
2019-08-12 14:11:13.593750,230.19
2019-08-12 14:11:13.609375,292.08
2019-08-12 14:11:13.625000,338.44
2019-08-12 14:11:13.640625,368.6
2019-08-12 14:11:13.656250,383.29
2019-08-12 14:11:13.671875,384.47
2019-08-12 14:11:13.687500,374.78
2019-08-12 14:11:13.703125,356.94
2019-08-12 14:11:13.718750,333.1
2019-08-12 14:11:13.734375,304.65
2019-08-12 14:11:13.750000,272.09
2019-08-12 14:11:13.765625,235.57
2019-08-12 14:11:13.781250,195.3
2019-08-12 14:11:13.796875,151.76
2019-08-12 14:11:13.812500,106.62
2019-08-12 14:11:13.828125,62.25
2019-08-12 14:11:13.843750,21.07
2019-08-12 14:11:13.859375,-15.3
2019-08-12 14:11:13.875000,-46.24
2019-08-12 14:11:13.890625,-72.54
2019-08-12 14:11:13.906250,-96.1
2019-08-12 14:11:13.921875,-119.77
2019-08-12 14:11:13.937500,-147.59
2019-08-12 14:11:13.953125,-183.23
2019-08-12 14:11:13.968750,-228.68
2019-08-12 14:11:13.984375,-282.89
2019-08-12 14:11:14.000000,-341.39
2019-08-12 14:11:14.015625,-396.94
2019-08-12 14:11:14.031250,-442.72
2019-08-12 14:11:14.046875,-475.03
2019-08-12 14:11:14.062500,-491.62
2019-08-12 14:11:14.078125,-495.8
2019-08-12 14:11:14.093750,-493.74
2019-08-12 14:11:14.109375,-491.56
2019-08-12 14:11:14.125000,-492.74
2019-08-12 14:11:14.140625,-497.43
2019-08-12 14:11:14.156250,-503.18
2019-08-12 14:11:14.171875,-507.6
2019-08-12 14:11:14.187500,-509.34
2019-08-12 14:11:14.203125,-508.0
2019-08-12 14:11:14.218750,-503.73
2019-08-12 14:11:14.234375,-495.71
2019-08-12 14:11:14.250000,-482.17
2019-08-12 14:11:14.265625,-461.14
2019-08-12 14:11:14.281250,-434.37
2019-08-12 14:11:14.296875,-402.57
2019-08-12 14:11:14.312500,-366.9
2019-08-12 14:11:14.328125,-328.75
2019-08-12 14:11:14.343750,-289.08
2019-08-12 14:11:14.359375,-248.47
2019-08-12 14:11:14.375000,-206.83
2019-08-12 14:11:14.390625,-163.74
2019-08-12 14:11:14.406250,-119.01
2019-08-12 14:11:14.421875,-73.23
2019-08-12 14:11:14.437500,-27.15
2019-08-12 14:11:14.453125,17.69
2019-08-12 14:11:14.468750,59.94
2019-08-12 14:11:14.484375,99.01
2019-08-12 14:11:14.500000,135.13
2019-08-12 14:11:14.515625,169.52
2019-08-12 14:11:14.531250,203.98
2019-08-12 14:11:14.546875,240.23
2019-08-12 14:11:14.562500,278.78
2019-08-12 14:11:14.578125,318.19
2019-08-12 14:11:14.593750,354.31
2019-08-12 14:11:14.609375,381.18
2019-08-12 14:11:14.625000,393.01
2019-08-12 14:11:14.640625,386.37
2019-08-12 14:11:14.656250,361.55
2019-08-12 14:11:14.671875,322.25
2019-08-12 14:11:14.687500,273.93
2019-08-12 14:11:14.703125,221.44
2019-08-12 14:11:14.718750,167.67
2019-08-12 14:11:14.734375,113.24
2019-08-12 14:11:14.750000,58.08
2019-08-12 14:11:14.765625,3.16
2019-08-12 14:11:14.781250,-48.19
2019-08-12 14:11:14.796875,-90.41
2019-08-12 14:11:14.812500,-117.02
2019-08-12 14:11:14.828125,-122.12
2019-08-12 14:11:14.843750,-101.25
2019-08-12 14:11:14.859375,-51.47
2019-08-12 14:11:14.875000,28.58
2019-08-12 14:11:14.890625,137.99
2019-08-12 14:11:14.906250,271.31
2019-08-12 14:11:14.921875,418.25
2019-08-12 14:11:14.937500,564.28
2019-08-12 14:11:14.953125,692.97
2019-08-12 14:11:14.968750,790.29
2019-08-12 14:11:14.984375,848.33
2019-08-12 14:11:15.000000,866.69
2019-08-12 14:11:15.015625,851.69
2019-08-12 14:11:15.031250,812.54
2019-08-12 14:11:15.046875,757.64
2019-08-12 14:11:15.062500,692.68
2019-08-12 14:11:15.078125,620.78
2019-08-12 14:11:15.093750,544.19
2019-08-12 14:11:15.109375,465.77
2019-08-12 14:11:15.125000,389.12
2019-08-12 14:11:15.140625,317.31
2019-08-12 14:11:15.156250,252.22
2019-08-12 14:11:15.171875,193.58
2019-08-12 14:11:15.187500,139.92
2019-08-12 14:11:15.203125,89.73
2019-08-12 14:11:15.218750,42.22
2019-08-12 14:11:15.234375,-2.52
2019-08-12 14:11:15.250000,-43.8
2019-08-12 14:11:15.265625,-79.72
2019-08-12 14:11:15.281250,-111.27
2019-08-12 14:11:15.296875,-140.64
2019-08-12 14:11:15.312500,-170.78
2019-08-12 14:11:15.328125,-204.07
2019-08-12 14:11:15.343750,-241.57
2019-08-12 14:11:15.359375,-282.78
2019-08-12 14:11:15.375000,-325.84
2019-08-12 14:11:15.390625,-368.13
2019-08-12 14:11:15.406250,-407.15
2019-08-12 14:11:15.421875,-441.3
2019-08-12 14:11:15.437500,-469.38
2019-08-12 14:11:15.453125,-490.94
2019-08-12 14:11:15.468750,-505.41
2019-08-12 14:11:15.484375,-511.87
2019-08-12 14:11:15.500000,-509.17
2019-08-12 14:11:15.515625,-496.28
2019-08-12 14:11:15.531250,-472.74
2019-08-12 14:11:15.546875,-439.12
2019-08-12 14:11:15.562500,-397.36
2019-08-12 14:11:15.578125,-347.19
2019-08-12 14:11:15.593750,-290.05
2019-08-12 14:11:15.609375,-227.77
2019-08-12 14:11:15.625000,-162.15
2019-08-12 14:11:15.640625,-94.97
2019-08-12 14:11:15.656250,-27.99
2019-08-12 14:11:15.671875,36.75
2019-08-12 14:11:15.687500,96.82
2019-08-12 14:11:15.703125,149.33
2019-08-12 14:11:15.718750,192.31
2019-08-12 14:11:15.734375,224.36
2019-08-12 14:11:15.750000,245.41
2019-08-12 14:11:15.765625,256.4
2019-08-12 14:11:15.781250,258.77
2019-08-12 14:11:15.796875,253.95
2019-08-12 14:11:15.812500,242.87
2019-08-12 14:11:15.828125,227.17
2019-08-12 14:11:15.843750,206.11
2019-08-12 14:11:15.859375,178.45
2019-08-12 14:11:15.875000,142.23
2019-08-12 14:11:15.890625,95.69
2019-08-12 14:11:15.906250,37.98
2019-08-12 14:11:15.921875,-29.63
2019-08-12 14:11:15.937500,-102.79
2019-08-12 14:11:15.953125,-172.92
2019-08-12 14:11:15.968750,-229.64
2019-08-12 14:11:15.984375,-264.86
2019-08-12 14:11:16.000000,-275.43
2019-08-12 14:11:16.015625,-265.0
2019-08-12 14:11:16.031250,-242.11
2019-08-12 14:11:16.046875,-216.56
2019-08-12 14:11:16.062500,-195.35
2019-08-12 14:11:16.078125,-180.68
2019-08-12 14:11:16.093750,-170.26
2019-08-12 14:11:16.109375,-159.84
2019-08-12 14:11:16.125000,-146.79
2019-08-12 14:11:16.140625,-128.55
2019-08-12 14:11:16.156250,-103.55
2019-08-12 14:11:16.171875,-70.51
2019-08-12 14:11:16.187500,-28.7
2019-08-12 14:11:16.203125,20.75
2019-08-12 14:11:16.218750,73.35
2019-08-12 14:11:16.234375,121.55
2019-08-12 14:11:16.250000,156.99
2019-08-12 14:11:16.265625,174.09
2019-08-12 14:11:16.281250,173.19
2019-08-12 14:11:16.296875,159.97
2019-08-12 14:11:16.312500,142.72
2019-08-12 14:11:16.328125,128.21
2019-08-12 14:11:16.343750,118.95
2019-08-12 14:11:16.359375,113.13
2019-08-12 14:11:16.375000,106.95
2019-08-12 14:11:16.390625,97.38
2019-08-12 14:11:16.406250,83.41
2019-08-12 14:11:16.421875,65.78
2019-08-12 14:11:16.437500,45.39
2019-08-12 14:11:16.453125,22.68
2019-08-12 14:11:16.468750,-1.55
2019-08-12 14:11:16.484375,-24.8
2019-08-12 14:11:16.500000,-42.96
2019-08-12 14:11:16.515625,-51.81
2019-08-12 14:11:16.531250,-49.47
2019-08-12 14:11:16.546875,-37.91
2019-08-12 14:11:16.562500,-21.77
2019-08-12 14:11:16.578125,-5.99
2019-08-12 14:11:16.593750,6.97
2019-08-12 14:11:16.609375,17.56
2019-08-12 14:11:16.625000,27.73
2019-08-12 14:11:16.640625,37.86
2019-08-12 14:11:16.656250,45.37
2019-08-12 14:11:16.671875,45.83
2019-08-12 14:11:16.687500,36.11
2019-08-12 14:11:16.703125,17.23
2019-08-12 14:11:16.718750,-4.92
2019-08-12 14:11:16.734375,-21.37
2019-08-12 14:11:16.750000,-23.57
2019-08-12 14:11:16.765625,-7.29
2019-08-12 14:11:16.781250,25.55
2019-08-12 14:11:16.796875,67.75
2019-08-12 14:11:16.812500,110.15
2019-08-12 14:11:16.828125,145.32
2019-08-12 14:11:16.843750,169.93
2019-08-12 14:11:16.859375,184.25
2019-08-12 14:11:16.875000,189.66
2019-08-12 14:11:16.890625,187.39
2019-08-12 14:11:16.906250,178.18
2019-08-12 14:11:16.921875,162.47
2019-08-12 14:11:16.937500,140.91
2019-08-12 14:11:16.953125,114.51
2019-08-12 14:11:16.968750,85.54
2019-08-12 14:11:16.984375,55.8
2019-08-12 14:11:17.000000,25.6
2019-08-12 14:11:17.015625,-6.84
2019-08-12 14:11:17.031250,-43.77
2019-08-12 14:11:17.046875,-85.98
2019-08-12 14:11:17.062500,-131.37
2019-08-12 14:11:17.078125,-174.56
2019-08-12 14:11:17.093750,-208.94
2019-08-12 14:11:17.109375,-229.25
2019-08-12 14:11:17.125000,-234.8
2019-08-12 14:11:17.140625,-227.64
2019-08-12 14:11:17.156250,-214.15
2019-08-12 14:11:17.171875,-201.21
2019-08-12 14:11:17.187500,-192.8
2019-08-12 14:11:17.203125,-188.6
2019-08-12 14:11:17.218750,-184.75
2019-08-12 14:11:17.234375,-180.03
2019-08-12 14:11:17.250000,-173.12
2019-08-12 14:11:17.265625,-164.41
2019-08-12 14:11:17.281250,-155.48
2019-08-12 14:11:17.296875,-148.07
2019-08-12 14:11:17.312500,-142.89
2019-08-12 14:11:17.328125,-138.68
2019-08-12 14:11:17.343750,-135.01
2019-08-12 14:11:17.359375,-132.41
2019-08-12 14:11:17.375000,-131.82
2019-08-12 14:11:17.390625,-135.31
2019-08-12 14:11:17.406250,-144.9
2019-08-12 14:11:17.421875,-161.21
2019-08-12 14:11:17.437500,-182.81
2019-08-12 14:11:17.453125,-205.95
2019-08-12 14:11:17.468750,-225.6
2019-08-12 14:11:17.484375,-239.09
2019-08-12 14:11:17.500000,-244.3
2019-08-12 14:11:17.515625,-241.29
2019-08-12 14:11:17.531250,-232.02
2019-08-12 14:11:17.546875,-219.39
2019-08-12 14:11:17.562500,-205.81
2019-08-12 14:11:17.578125,-192.08
2019-08-12 14:11:17.593750,-176.12
2019-08-12 14:11:17.609375,-155.05
2019-08-12 14:11:17.625000,-125.95
2019-08-12 14:11:17.640625,-86.5
2019-08-12 14:11:17.656250,-35.76
2019-08-12 14:11:17.671875,25.98
2019-08-12 14:11:17.687500,97.0
2019-08-12 14:11:17.703125,173.93
2019-08-12 14:11:17.718750,251.51
2019-08-12 14:11:17.734375,323.15
2019-08-12 14:11:17.750000,382.28
2019-08-12 14:11:17.765625,424.58
2019-08-12 14:11:17.781250,449.42
2019-08-12 14:11:17.796875,459.41
2019-08-12 14:11:17.812500,458.82
2019-08-12 14:11:17.828125,451.08
2019-08-12 14:11:17.843750,436.92
2019-08-12 14:11:17.859375,414.41
2019-08-12 14:11:17.875000,380.93
2019-08-12 14:11:17.890625,336.11
2019-08-12 14:11:17.906250,284.1
2019-08-12 14:11:17.921875,232.83
2019-08-12 14:11:17.937500,190.75
2019-08-12 14:11:17.953125,163.1
2019-08-12 14:11:17.968750,149.48
2019-08-12 14:11:17.984375,144.16
2019-08-12 14:11:18.000000,139.04
2019-08-12 14:11:18.015625,127.34
2019-08-12 14:11:18.031250,104.58
2019-08-12 14:11:18.046875,71.17
2019-08-12 14:11:18.062500,30.22
2019-08-12 14:11:18.078125,-15.11
2019-08-12 14:11:18.093750,-63.43
2019-08-12 14:11:18.109375,-114.66
2019-08-12 14:11:18.125000,-168.39
2019-08-12 14:11:18.140625,-221.22
2019-08-12 14:11:18.156250,-267.63
2019-08-12 14:11:18.171875,-300.63
2019-08-12 14:11:18.187500,-313.83
2019-08-12 14:11:18.203125,-303.79
2019-08-12 14:11:18.218750,-270.81
2019-08-12 14:11:18.234375,-218.35
2019-08-12 14:11:18.250000,-151.79
2019-08-12 14:11:18.265625,-78.06
2019-08-12 14:11:18.281250,-5.3
2019-08-12 14:11:18.296875,57.7
2019-08-12 14:11:18.312500,103.72
2019-08-12 14:11:18.328125,130.04
2019-08-12 14:11:18.343750,139.62
2019-08-12 14:11:18.359375,140.67
2019-08-12 14:11:18.375000,142.92
2019-08-12 14:11:18.390625,153.11
2019-08-12 14:11:18.406250,172.17
2019-08-12 14:11:18.421875,195.91
2019-08-12 14:11:18.437500,218.47
2019-08-12 14:11:18.453125,236.6
2019-08-12 14:11:18.468750,250.0
2019-08-12 14:11:18.484375,261.38
2019-08-12 14:11:18.500000,273.82
2019-08-12 14:11:18.515625,288.07
2019-08-12 14:11:18.531250,301.82
2019-08-12 14:11:18.546875,311.62
2019-08-12 14:11:18.562500,315.33
2019-08-12 14:11:18.578125,313.36
2019-08-12 14:11:18.593750,307.7
2019-08-12 14:11:18.609375,302.67
2019-08-12 14:11:18.625000,297.68
2019-08-12 14:11:18.640625,288.05
2019-08-12 14:11:18.656250,267.06
2019-08-12 14:11:18.671875,228.7
2019-08-12 14:11:18.687500,170.2
2019-08-12 14:11:18.703125,93.57
2019-08-12 14:11:18.718750,5.67
2019-08-12 14:11:18.734375,-82.86
2019-08-12 14:11:18.750000,-159.6
2019-08-12 14:11:18.765625,-213.87
2019-08-12 14:11:18.781250,-240.78
2019-08-12 14:11:18.796875,-243.88
2019-08-12 14:11:18.812500,-234.13
2019-08-12 14:11:18.828125,-224.62
2019-08-12 14:11:18.843750,-224.01
2019-08-12 14:11:18.859375,-232.64
2019-08-12 14:11:18.875000,-242.64
2019-08-12 14:11:18.890625,-243.39
2019-08-12 14:11:18.906250,-228.87
2019-08-12 14:11:18.921875,-201.4
2019-08-12 14:11:18.937500,-170.74
2019-08-12 14:11:18.953125,-148.79
2019-08-12 14:11:18.968750,-143.54
2019-08-12 14:11:18.984375,-155.97
2019-08-12 14:11:19.000000,-181.09
2019-08-12 14:11:19.015625,-210.87
2019-08-12 14:11:19.031250,-237.79
2019-08-12 14:11:19.046875,-257.0
2019-08-12 14:11:19.062500,-266.51
2019-08-12 14:11:19.078125,-266.4
2019-08-12 14:11:19.093750,-258.41
2019-08-12 14:11:19.109375,-245.7
2019-08-12 14:11:19.125000,-230.44
2019-08-12 14:11:19.140625,-216.38
2019-08-12 14:11:19.156250,-207.03
2019-08-12 14:11:19.171875,-204.45
2019-08-12 14:11:19.187500,-209.16
2019-08-12 14:11:19.203125,-220.64
2019-08-12 14:11:19.218750,-237.69
2019-08-12 14:11:19.234375,-258.69
2019-08-12 14:11:19.250000,-281.07
2019-08-12 14:11:19.265625,-301.72
2019-08-12 14:11:19.281250,-318.02
2019-08-12 14:11:19.296875,-328.21
2019-08-12 14:11:19.312500,-332.09
2019-08-12 14:11:19.328125,-330.97
2019-08-12 14:11:19.343750,-326.59
2019-08-12 14:11:19.359375,-320.11
2019-08-12 14:11:19.375000,-313.16
2019-08-12 14:11:19.390625,-304.13
2019-08-12 14:11:19.406250,-290.22
2019-08-12 14:11:19.421875,-269.23
2019-08-12 14:11:19.437500,-240.29
2019-08-12 14:11:19.453125,-204.35
2019-08-12 14:11:19.468750,-163.8
2019-08-12 14:11:19.484375,-121.78
2019-08-12 14:11:19.500000,-80.94
2019-08-12 14:11:19.515625,-43.0
2019-08-12 14:11:19.531250,-8.24
2019-08-12 14:11:19.546875,23.47
2019-08-12 14:11:19.562500,52.07
2019-08-12 14:11:19.578125,77.26
2019-08-12 14:11:19.593750,98.53
2019-08-12 14:11:19.609375,115.58
2019-08-12 14:11:19.625000,128.32
2019-08-12 14:11:19.640625,137.62
2019-08-12 14:11:19.656250,145.12
2019-08-12 14:11:19.671875,152.88
2019-08-12 14:11:19.687500,162.33
2019-08-12 14:11:19.703125,173.77
2019-08-12 14:11:19.718750,186.46
2019-08-12 14:11:19.734375,199.17
2019-08-12 14:11:19.750000,210.74
2019-08-12 14:11:19.765625,220.79
2019-08-12 14:11:19.781250,229.96
2019-08-12 14:11:19.796875,239.72
2019-08-12 14:11:19.812500,252.01
2019-08-12 14:11:19.828125,268.46
2019-08-12 14:11:19.843750,289.66
2019-08-12 14:11:19.859375,314.7
2019-08-12 14:11:19.875000,340.92
2019-08-12 14:11:19.890625,364.03
2019-08-12 14:11:19.906250,378.87
2019-08-12 14:11:19.921875,380.73
2019-08-12 14:11:19.937500,366.8
2019-08-12 14:11:19.953125,337.46
2019-08-12 14:11:19.968750,296.64
2019-08-12 14:11:19.984375,251.05
2019-08-12 14:11:20.000000,208.34
2019-08-12 14:11:20.015625,174.72
2019-08-12 14:11:20.031250,153.0
2019-08-12 14:11:20.046875,141.97
2019-08-12 14:11:20.062500,137.36
2019-08-12 14:11:20.078125,133.87
2019-08-12 14:11:20.093750,127.32
2019-08-12 14:11:20.109375,116.03
2019-08-12 14:11:20.125000,100.69
2019-08-12 14:11:20.140625,83.14
2019-08-12 14:11:20.156250,65.11
2019-08-12 14:11:20.171875,47.48
2019-08-12 14:11:20.187500,30.55
2019-08-12 14:11:20.203125,14.91
2019-08-12 14:11:20.218750,1.97
2019-08-12 14:11:20.234375,-6.38
2019-08-12 14:11:20.250000,-8.93
2019-08-12 14:11:20.265625,-6.19
2019-08-12 14:11:20.281250,-0.82
2019-08-12 14:11:20.296875,3.41
2019-08-12 14:11:20.312500,3.29
2019-08-12 14:11:20.328125,-2.23
2019-08-12 14:11:20.343750,-11.47
2019-08-12 14:11:20.359375,-20.86
2019-08-12 14:11:20.375000,-26.82
2019-08-12 14:11:20.390625,-27.47
2019-08-12 14:11:20.406250,-23.47
2019-08-12 14:11:20.421875,-17.74
2019-08-12 14:11:20.437500,-13.78
2019-08-12 14:11:20.453125,-13.98
2019-08-12 14:11:20.468750,-18.45
2019-08-12 14:11:20.484375,-24.91
2019-08-12 14:11:20.500000,-29.69
2019-08-12 14:11:20.515625,-29.44
2019-08-12 14:11:20.531250,-22.57
2019-08-12 14:11:20.546875,-9.99
2019-08-12 14:11:20.562500,4.94
2019-08-12 14:11:20.578125,18.15
2019-08-12 14:11:20.593750,26.52
2019-08-12 14:11:20.609375,29.2
2019-08-12 14:11:20.625000,27.92
2019-08-12 14:11:20.640625,25.97
2019-08-12 14:11:20.656250,26.29
2019-08-12 14:11:20.671875,30.21
2019-08-12 14:11:20.687500,37.21
2019-08-12 14:11:20.703125,45.72
2019-08-12 14:11:20.718750,54.99
2019-08-12 14:11:20.734375,66.07
2019-08-12 14:11:20.750000,81.5
2019-08-12 14:11:20.765625,102.86
2019-08-12 14:11:20.781250,129.99
2019-08-12 14:11:20.796875,160.08
2019-08-12 14:11:20.812500,188.33
2019-08-12 14:11:20.828125,212.25
2019-08-12 14:11:20.843750,230.43
2019-08-12 14:11:20.859375,243.55
2019-08-12 14:11:20.875000,253.92
2019-08-12 14:11:20.890625,262.43
2019-08-12 14:11:20.906250,269.02
2019-08-12 14:11:20.921875,272.31
2019-08-12 14:11:20.937500,269.93
2019-08-12 14:11:20.953125,259.18
2019-08-12 14:11:20.968750,237.81
2019-08-12 14:11:20.984375,204.28
2019-08-12 14:11:21.000000,158.95
2019-08-12 14:11:21.015625,104.84
2019-08-12 14:11:21.031250,47.69
2019-08-12 14:11:21.046875,-4.91
2019-08-12 14:11:21.062500,-45.8
2019-08-12 14:11:21.078125,-71.0
2019-08-12 14:11:21.093750,-81.33
2019-08-12 14:11:21.109375,-82.14
2019-08-12 14:11:21.125000,-81.76
2019-08-12 14:11:21.140625,-87.78
2019-08-12 14:11:21.156250,-104.3
2019-08-12 14:11:21.171875,-130.99
2019-08-12 14:11:21.187500,-164.38
2019-08-12 14:11:21.203125,-200.33
2019-08-12 14:11:21.218750,-235.88
2019-08-12 14:11:21.234375,-269.92
2019-08-12 14:11:21.250000,-302.19
2019-08-12 14:11:21.265625,-332.32
2019-08-12 14:11:21.281250,-359.23
2019-08-12 14:11:21.296875,-381.71
2019-08-12 14:11:21.312500,-399.4
2019-08-12 14:11:21.328125,-413.28
2019-08-12 14:11:21.343750,-425.45
2019-08-12 14:11:21.359375,-438.26
2019-08-12 14:11:21.375000,-453.34
2019-08-12 14:11:21.390625,-470.78
2019-08-12 14:11:21.406250,-489.25
2019-08-12 14:11:21.421875,-506.48
2019-08-12 14:11:21.437500,-520.05
2019-08-12 14:11:21.453125,-528.2
2019-08-12 14:11:21.468750,-530.04
2019-08-12 14:11:21.484375,-526.42
2019-08-12 14:11:21.500000,-517.58
2019-08-12 14:11:21.515625,-503.2
2019-08-12 14:11:21.531250,-482.36
2019-08-12 14:11:21.546875,-454.12
2019-08-12 14:11:21.562500,-418.19
2019-08-12 14:11:21.578125,-375.49
2019-08-12 14:11:21.593750,-328.28
2019-08-12 14:11:21.609375,-279.66
2019-08-12 14:11:21.625000,-232.7
2019-08-12 14:11:21.640625,-189.43
2019-08-12 14:11:21.656250,-150.54
2019-08-12 14:11:21.671875,-115.47
2019-08-12 14:11:21.687500,-83.06
2019-08-12 14:11:21.703125,-52.34
2019-08-12 14:11:21.718750,-23.12
2019-08-12 14:11:21.734375,4.14
2019-08-12 14:11:21.750000,28.67
2019-08-12 14:11:21.765625,50.14
2019-08-12 14:11:21.781250,69.28
2019-08-12 14:11:21.796875,87.83
2019-08-12 14:11:21.812500,108.35
2019-08-12 14:11:21.828125,133.91
2019-08-12 14:11:21.843750,167.79
2019-08-12 14:11:21.859375,212.91
2019-08-12 14:11:21.875000,270.36
2019-08-12 14:11:21.890625,338.51
2019-08-12 14:11:21.906250,412.2
2019-08-12 14:11:21.921875,483.59
2019-08-12 14:11:21.937500,543.56
2019-08-12 14:11:21.953125,585.53
2019-08-12 14:11:21.968750,607.78
2019-08-12 14:11:21.984375,613.84
2019-08-12 14:11:22.000000,610.52
2019-08-12 14:11:22.015625,604.59
2019-08-12 14:11:22.031250,599.83
2019-08-12 14:11:22.046875,596.09
2019-08-12 14:11:22.062500,590.48
2019-08-12 14:11:22.078125,579.53
2019-08-12 14:11:22.093750,561.25
2019-08-12 14:11:22.109375,535.45
2019-08-12 14:11:22.125000,502.96
2019-08-12 14:11:22.140625,464.51
2019-08-12 14:11:22.156250,420.2
2019-08-12 14:11:22.171875,369.96
2019-08-12 14:11:22.187500,314.31
2019-08-12 14:11:22.203125,255.03
2019-08-12 14:11:22.218750,194.93
2019-08-12 14:11:22.234375,137.43
2019-08-12 14:11:22.250000,85.36
2019-08-12 14:11:22.265625,40.19
2019-08-12 14:11:22.281250,1.83
2019-08-12 14:11:22.296875,-30.95
2019-08-12 14:11:22.312500,-59.75
2019-08-12 14:11:22.328125,-85.74
2019-08-12 14:11:22.343750,-109.26
2019-08-12 14:11:22.359375,-129.8
2019-08-12 14:11:22.375000,-146.41
2019-08-12 14:11:22.390625,-158.34
2019-08-12 14:11:22.406250,-165.52
2019-08-12 14:11:22.421875,-168.69
2019-08-12 14:11:22.437500,-169.11
2019-08-12 14:11:22.453125,-168.15
2019-08-12 14:11:22.468750,-166.8
2019-08-12 14:11:22.484375,-165.42
2019-08-12 14:11:22.500000,-163.78
2019-08-12 14:11:22.515625,-161.3
2019-08-12 14:11:22.531250,-157.49
2019-08-12 14:11:22.546875,-152.19
2019-08-12 14:11:22.562500,-145.67
2019-08-12 14:11:22.578125,-138.5
2019-08-12 14:11:22.593750,-131.31
2019-08-12 14:11:22.609375,-124.56
2019-08-12 14:11:22.625000,-118.38
2019-08-12 14:11:22.640625,-112.62
2019-08-12 14:11:22.656250,-106.92
2019-08-12 14:11:22.671875,-101.02
2019-08-12 14:11:22.687500,-94.76
2019-08-12 14:11:22.703125,-88.22
2019-08-12 14:11:22.718750,-81.65
2019-08-12 14:11:22.734375,-75.36
2019-08-12 14:11:22.750000,-69.58
2019-08-12 14:11:22.765625,-64.36
2019-08-12 14:11:22.781250,-59.59
2019-08-12 14:11:22.796875,-55.02
2019-08-12 14:11:22.812500,-50.44
2019-08-12 14:11:22.828125,-45.69
2019-08-12 14:11:22.843750,-40.84
2019-08-12 14:11:22.859375,-36.13
2019-08-12 14:11:22.875000,-31.91
2019-08-12 14:11:22.890625,-28.44
2019-08-12 14:11:22.906250,-25.74
2019-08-12 14:11:22.921875,-23.56
2019-08-12 14:11:22.937500,-21.28
2019-08-12 14:11:22.953125,-18.5
2019-08-12 14:11:22.968750,-14.98
2019-08-12 14:11:22.984375,-10.88
2019-08-12 14:11:23.000000,-6.76
2019-08-12 14:11:23.015625,-3.32
2019-08-12 14:11:23.031250,-1.15
2019-08-12 14:11:23.046875,-0.3
2019-08-12 14:11:23.062500,-0.26
2019-08-12 14:11:23.078125,-0.11
2019-08-12 14:11:23.093750,1.07
2019-08-12 14:11:23.109375,3.81
2019-08-12 14:11:23.125000,7.89
2019-08-12 14:11:23.140625,12.41
2019-08-12 14:11:23.156250,16.17
2019-08-12 14:11:23.171875,18.27
2019-08-12 14:11:23.187500,18.67
2019-08-12 14:11:23.203125,18.25
2019-08-12 14:11:23.218750,18.38
2019-08-12 14:11:23.234375,20.23
2019-08-12 14:11:23.250000,24.31
2019-08-12 14:11:23.265625,29.97
2019-08-12 14:11:23.281250,35.63
2019-08-12 14:11:23.296875,39.35
2019-08-12 14:11:23.312500,39.19
2019-08-12 14:11:23.328125,33.67
2019-08-12 14:11:23.343750,21.77
2019-08-12 14:11:23.359375,3.36
2019-08-12 14:11:23.375000,-20.13
2019-08-12 14:11:23.390625,-45.2
2019-08-12 14:11:23.406250,-66.6
2019-08-12 14:11:23.421875,-78.42
2019-08-12 14:11:23.437500,-77.2
2019-08-12 14:11:23.453125,-63.52
2019-08-12 14:11:23.468750,-42.11
2019-08-12 14:11:23.484375,-20.02
2019-08-12 14:11:23.500000,-3.49
2019-08-12 14:11:23.515625,4.42
2019-08-12 14:11:23.531250,4.7
2019-08-12 14:11:23.546875,0.84
2019-08-12 14:11:23.562500,-3.45
2019-08-12 14:11:23.578125,-6.26
2019-08-12 14:11:23.593750,-7.71
2019-08-12 14:11:23.609375,-8.92
2019-08-12 14:11:23.625000,-10.63
2019-08-12 14:11:23.640625,-12.42
2019-08-12 14:11:23.656250,-13.09
2019-08-12 14:11:23.671875,-11.64
2019-08-12 14:11:23.687500,-8.14
2019-08-12 14:11:23.703125,-3.62
2019-08-12 14:11:23.718750,0.27
2019-08-12 14:11:23.734375,2.1
2019-08-12 14:11:23.750000,1.54
2019-08-12 14:11:23.765625,-0.68
2019-08-12 14:11:23.781250,-3.13
2019-08-12 14:11:23.796875,-4.46
2019-08-12 14:11:23.812500,-3.92
2019-08-12 14:11:23.828125,-1.68
2019-08-12 14:11:23.843750,1.36
2019-08-12 14:11:23.859375,3.99
2019-08-12 14:11:23.875000,5.32
2019-08-12 14:11:23.890625,5.16
2019-08-12 14:11:23.906250,3.96
2019-08-12 14:11:23.921875,2.59
2019-08-12 14:11:23.937500,1.82
2019-08-12 14:11:23.953125,2.05
2019-08-12 14:11:23.968750,3.16
2019-08-12 14:11:23.984375,4.65
2019-08-12 14:11:24.000000,5.87
2019-08-12 14:11:24.015625,6.38
2019-08-12 14:11:24.031250,6.09
2019-08-12 14:11:24.046875,5.24
2019-08-12 14:11:24.062500,4.19
2019-08-12 14:11:24.078125,3.26
2019-08-12 14:11:24.093750,2.58
2019-08-12 14:11:24.109375,2.07
2019-08-12 14:11:24.125000,1.54
2019-08-12 14:11:24.140625,0.81
2019-08-12 14:11:24.156250,-0.21
2019-08-12 14:11:24.171875,-1.48
2019-08-12 14:11:24.187500,-2.97
2019-08-12 14:11:24.203125,-4.72
2019-08-12 14:11:24.218750,-6.84
2019-08-12 14:11:24.234375,-9.49
2019-08-12 14:11:24.250000,-12.77
2019-08-12 14:11:24.265625,-16.56
2019-08-12 14:11:24.281250,-20.56
2019-08-12 14:11:24.296875,-24.43
2019-08-12 14:11:24.312500,-27.91
2019-08-12 14:11:24.328125,-31.08
2019-08-12 14:11:24.343750,-34.43
2019-08-12 14:11:24.359375,-38.61
2019-08-12 14:11:24.375000,-44.19
2019-08-12 14:11:24.390625,-51.38
2019-08-12 14:11:24.406250,-59.79
2019-08-12 14:11:24.421875,-68.63
2019-08-12 14:11:24.437500,-76.98
2019-08-12 14:11:24.453125,-84.31
2019-08-12 14:11:24.468750,-90.79
2019-08-12 14:11:24.484375,-97.39
2019-08-12 14:11:24.500000,-105.41
2019-08-12 14:11:24.515625,-115.88
2019-08-12 14:11:24.531250,-128.96
2019-08-12 14:11:24.546875,-143.62
2019-08-12 14:11:24.562500,-157.85
2019-08-12 14:11:24.578125,-169.26
2019-08-12 14:11:24.593750,-175.77
2019-08-12 14:11:24.609375,-176.33
2019-08-12 14:11:24.625000,-171.26
2019-08-12 14:11:24.640625,-161.33
2019-08-12 14:11:24.656250,-147.36
2019-08-12 14:11:24.671875,-129.59
2019-08-12 14:11:24.687500,-107.55
2019-08-12 14:11:24.703125,-80.52
2019-08-12 14:11:24.718750,-47.94
2019-08-12 14:11:24.734375,-9.54
2019-08-12 14:11:24.750000,34.47
2019-08-12 14:11:24.765625,83.2
2019-08-12 14:11:24.781250,134.52
2019-08-12 14:11:24.796875,184.22
2019-08-12 14:11:24.812500,225.97
2019-08-12 14:11:24.828125,252.49
2019-08-12 14:11:24.843750,258.16
2019-08-12 14:11:24.859375,241.15
2019-08-12 14:11:24.875000,205.9
2019-08-12 14:11:24.890625,161.89
2019-08-12 14:11:24.906250,120.08
2019-08-12 14:11:24.921875,88.94
2019-08-12 14:11:24.937500,71.68
2019-08-12 14:11:24.953125,66.34
2019-08-12 14:11:24.968750,68.15
2019-08-12 14:11:24.984375,72.52
2019-08-12 14:11:25.000000,76.81
2019-08-12 14:11:25.015625,80.5
2019-08-12 14:11:25.031250,83.74
2019-08-12 14:11:25.046875,86.09
2019-08-12 14:11:25.062500,86.28
2019-08-12 14:11:25.078125,82.93
2019-08-12 14:11:25.093750,75.82
2019-08-12 14:11:25.109375,65.92
2019-08-12 14:11:25.125000,55.31
2019-08-12 14:11:25.140625,46.36
2019-08-12 14:11:25.156250,40.68
2019-08-12 14:11:25.171875,38.37
2019-08-12 14:11:25.187500,38.22
2019-08-12 14:11:25.203125,38.36
2019-08-12 14:11:25.218750,37.17
2019-08-12 14:11:25.234375,33.9
2019-08-12 14:11:25.250000,28.99
2019-08-12 14:11:25.265625,23.67
2019-08-12 14:11:25.281250,19.44
2019-08-12 14:11:25.296875,17.36
2019-08-12 14:11:25.312500,17.62
2019-08-12 14:11:25.328125,19.57
2019-08-12 14:11:25.343750,22.2
2019-08-12 14:11:25.359375,24.58
2019-08-12 14:11:25.375000,26.17
2019-08-12 14:11:25.390625,26.99
2019-08-12 14:11:25.406250,27.32
2019-08-12 14:11:25.421875,27.42
2019-08-12 14:11:25.437500,27.08
2019-08-12 14:11:25.453125,25.59
2019-08-12 14:11:25.468750,21.48
2019-08-12 14:11:25.484375,13.28
2019-08-12 14:11:25.500000,-0.19
2019-08-12 14:11:25.515625,-19.38
2019-08-12 14:11:25.531250,-43.77
2019-08-12 14:11:25.546875,-72.11
2019-08-12 14:11:25.562500,-102.24
2019-08-12 14:11:25.578125,-131.56
2019-08-12 14:11:25.593750,-157.43
2019-08-12 14:11:25.609375,-177.37
2019-08-12 14:11:25.625000,-189.39
2019-08-12 14:11:25.640625,-192.17
2019-08-12 14:11:25.656250,-185.33
2019-08-12 14:11:25.671875,-168.74
2019-08-12 14:11:25.687500,-144.33
2019-08-12 14:11:25.703125,-114.71
2019-08-12 14:11:25.718750,-82.77
2019-08-12 14:11:25.734375,-51.27
2019-08-12 14:11:25.750000,-22.52
2019-08-12 14:11:25.765625,1.82
2019-08-12 14:11:25.781250,20.92
2019-08-12 14:11:25.796875,34.63
2019-08-12 14:11:25.812500,43.42
2019-08-12 14:11:25.828125,47.95
2019-08-12 14:11:25.843750,49.24
2019-08-12 14:11:25.859375,48.45
2019-08-12 14:11:25.875000,46.5
2019-08-12 14:11:25.890625,44.21
2019-08-12 14:11:25.906250,41.92
2019-08-12 14:11:25.921875,39.77
2019-08-12 14:11:25.937500,37.8
2019-08-12 14:11:25.953125,35.99
2019-08-12 14:11:25.968750,34.1
2019-08-12 14:11:25.984375,32.13
2019-08-12 14:11:26.000000,30.13
2019-08-12 14:11:26.015625,28.16
2019-08-12 14:11:26.031250,26.29
2019-08-12 14:11:26.046875,24.52
2019-08-12 14:11:26.062500,22.86
2019-08-12 14:11:26.078125,21.31
2019-08-12 14:11:26.093750,19.82
2019-08-12 14:11:26.109375,18.28
2019-08-12 14:11:26.125000,16.72
2019-08-12 14:11:26.140625,15.17
2019-08-12 14:11:26.156250,13.67
2019-08-12 14:11:26.171875,12.26
2019-08-12 14:11:26.187500,10.95
2019-08-12 14:11:26.203125,9.76
2019-08-12 14:11:26.218750,8.68
2019-08-12 14:11:26.234375,7.7
2019-08-12 14:11:26.250000,6.74
2019-08-12 14:11:26.265625,5.83
2019-08-12 14:11:26.281250,4.95
2019-08-12 14:11:26.296875,4.12
2019-08-12 14:11:26.312500,3.36
2019-08-12 14:11:26.328125,2.65
2019-08-12 14:11:26.343750,2.0
2019-08-12 14:11:26.359375,1.42
2019-08-12 14:11:26.375000,0.89
2019-08-12 14:11:26.390625,0.39
2019-08-12 14:11:26.406250,-0.08
2019-08-12 14:11:26.421875,-0.52
2019-08-12 14:11:26.437500,-0.93
2019-08-12 14:11:26.453125,-1.28
2019-08-12 14:11:26.468750,-1.59
2019-08-12 14:11:26.484375,-1.84
2019-08-12 14:11:26.500000,-2.02
2019-08-12 14:11:26.515625,-2.13
2019-08-12 14:11:26.531250,-2.19
2019-08-12 14:11:26.546875,-2.2
2019-08-12 14:11:26.562500,-2.18
2019-08-12 14:11:26.578125,-2.14
2019-08-12 14:11:26.593750,-2.07
2019-08-12 14:11:26.609375,-2.0
2019-08-12 14:11:26.625000,-1.92
2019-08-12 14:11:26.640625,-1.82
2019-08-12 14:11:26.656250,-1.75
2019-08-12 14:11:26.671875,-1.72
2019-08-12 14:11:26.687500,-1.75
2019-08-12 14:11:26.703125,-1.82
2019-08-12 14:11:26.718750,-1.89
2019-08-12 14:11:26.734375,-1.91
2019-08-12 14:11:26.750000,-1.84
2019-08-12 14:11:26.765625,-1.68
2019-08-12 14:11:26.781250,-1.49
2019-08-12 14:11:26.796875,-1.37
2019-08-12 14:11:26.812500,-1.38
2019-08-12 14:11:26.828125,-1.56
2019-08-12 14:11:26.843750,-1.86
2019-08-12 14:11:26.859375,-2.17
2019-08-12 14:11:26.875000,-2.36
2019-08-12 14:11:26.890625,-2.37
2019-08-12 14:11:26.906250,-2.19
2019-08-12 14:11:26.921875,-1.93
2019-08-12 14:11:26.937500,-1.75
2019-08-12 14:11:26.953125,-1.77
2019-08-12 14:11:26.968750,-2.07
2019-08-12 14:11:26.984375,-2.55
2019-08-12 14:11:27.000000,-3.06
2019-08-12 14:11:27.015625,-3.37
2019-08-12 14:11:27.031250,-3.33
2019-08-12 14:11:27.046875,-2.95
2019-08-12 14:11:27.062500,-2.42
2019-08-12 14:11:27.078125,-2.07
2019-08-12 14:11:27.093750,-2.19
2019-08-12 14:11:27.109375,-2.91
2019-08-12 14:11:27.125000,-4.05
2019-08-12 14:11:27.140625,-5.21
2019-08-12 14:11:27.156250,-5.87
2019-08-12 14:11:27.171875,-5.68
2019-08-12 14:11:27.187500,-4.69
2019-08-12 14:11:27.203125,-3.4
2019-08-12 14:11:27.218750,-2.61
2019-08-12 14:11:27.234375,-3.03
2019-08-12 14:11:27.250000,-4.91
2019-08-12 14:11:27.265625,-7.81
2019-08-12 14:11:27.281250,-10.72
2019-08-12 14:11:27.296875,-12.51
2019-08-12 14:11:27.312500,-12.41
2019-08-12 14:11:27.328125,-10.59
2019-08-12 14:11:27.343750,-8.1
2019-08-12 14:11:27.359375,-6.51
2019-08-12 14:11:27.375000,-7.21
2019-08-12 14:11:27.390625,-10.58
2019-08-12 14:11:27.406250,-15.77
2019-08-12 14:11:27.421875,-20.95
2019-08-12 14:11:27.437500,-24.13
2019-08-12 14:11:27.453125,-24.13
2019-08-12 14:11:27.468750,-21.41
2019-08-12 14:11:27.484375,-17.67
2019-08-12 14:11:27.500000,-15.11
2019-08-12 14:11:27.515625,-15.48
2019-08-12 14:11:27.531250,-19.04
2019-08-12 14:11:27.546875,-24.68
2019-08-12 14:11:27.562500,-30.79
2019-08-12 14:11:27.578125,-36.18
2019-08-12 14:11:27.593750,-39.99
2019-08-12 14:11:27.609375,-41.3
2019-08-12 14:11:27.625000,-38.66
2019-08-12 14:11:27.640625,-30.6
2019-08-12 14:11:27.656250,-17.12
2019-08-12 14:11:27.671875,-1.08
2019-08-12 14:11:27.687500,11.88
2019-08-12 14:11:27.703125,15.79
2019-08-12 14:11:27.718750,7.91
2019-08-12 14:11:27.734375,-8.62
2019-08-12 14:11:27.750000,-25.36
2019-08-12 14:11:27.765625,-32.33
2019-08-12 14:11:27.781250,-23.27
2019-08-12 14:11:27.796875,1.12
2019-08-12 14:11:27.812500,33.61
2019-08-12 14:11:27.828125,64.36
2019-08-12 14:11:27.843750,85.92
2019-08-12 14:11:27.859375,96.24
2019-08-12 14:11:27.875000,98.22
2019-08-12 14:11:27.890625,96.58
2019-08-12 14:11:27.906250,94.57
2019-08-12 14:11:27.921875,92.56
2019-08-12 14:11:27.937500,89.05
2019-08-12 14:11:27.953125,83.11
2019-08-12 14:11:27.968750,75.9
2019-08-12 14:11:27.984375,70.96
2019-08-12 14:11:28.000000,71.96
2019-08-12 14:11:28.015625,79.48
2019-08-12 14:11:28.031250,89.7
2019-08-12 14:11:28.046875,95.17
2019-08-12 14:11:28.062500,88.33
2019-08-12 14:11:28.078125,65.44
2019-08-12 14:11:28.093750,29.21
2019-08-12 14:11:28.109375,-11.78
2019-08-12 14:11:28.125000,-46.7
2019-08-12 14:11:28.140625,-67.17
2019-08-12 14:11:28.156250,-71.07
2019-08-12 14:11:28.171875,-62.42
2019-08-12 14:11:28.187500,-48.95
2019-08-12 14:11:28.203125,-38.11
2019-08-12 14:11:28.218750,-33.7
2019-08-12 14:11:28.234375,-35.31
2019-08-12 14:11:28.250000,-40.01
2019-08-12 14:11:28.265625,-44.46
2019-08-12 14:11:28.281250,-46.34
2019-08-12 14:11:28.296875,-44.35
2019-08-12 14:11:28.312500,-37.19
2019-08-12 14:11:28.328125,-23.91
2019-08-12 14:11:28.343750,-4.91
2019-08-12 14:11:28.359375,17.33
2019-08-12 14:11:28.375000,38.13
2019-08-12 14:11:28.390625,51.54
2019-08-12 14:11:28.406250,53.07
2019-08-12 14:11:28.421875,42.16
2019-08-12 14:11:28.437500,22.53
2019-08-12 14:11:28.453125,1.91
2019-08-12 14:11:28.468750,-11.36
2019-08-12 14:11:28.484375,-11.55
2019-08-12 14:11:28.500000,1.56
2019-08-12 14:11:28.515625,22.16
2019-08-12 14:11:28.531250,41.07
2019-08-12 14:11:28.546875,50.19
2019-08-12 14:11:28.562500,46.54
2019-08-12 14:11:28.578125,33.34
2019-08-12 14:11:28.593750,17.31
2019-08-12 14:11:28.609375,3.8
2019-08-12 14:11:28.625000,-6.66
2019-08-12 14:11:28.640625,-18.04
2019-08-12 14:11:28.656250,-35.48
2019-08-12 14:11:28.671875,-60.24
2019-08-12 14:11:28.687500,-87.45
2019-08-12 14:11:28.703125,-108.76
2019-08-12 14:11:28.718750,-117.84
2019-08-12 14:11:28.734375,-114.45
2019-08-12 14:11:28.750000,-105.11
2019-08-12 14:11:28.765625,-98.2
2019-08-12 14:11:28.781250,-98.18
2019-08-12 14:11:28.796875,-102.28
2019-08-12 14:11:28.812500,-102.03
2019-08-12 14:11:28.828125,-88.96
2019-08-12 14:11:28.843750,-60.18
2019-08-12 14:11:28.859375,-19.88
2019-08-12 14:11:28.875000,23.35
2019-08-12 14:11:28.890625,60.71
2019-08-12 14:11:28.906250,86.7
2019-08-12 14:11:28.921875,99.58
2019-08-12 14:11:28.937500,100.03
2019-08-12 14:11:28.953125,89.8
2019-08-12 14:11:28.968750,71.0
2019-08-12 14:11:28.984375,46.83
2019-08-12 14:11:29.000000,22.11
2019-08-12 14:11:29.015625,1.97
2019-08-12 14:11:29.031250,-9.76
2019-08-12 14:11:29.046875,-12.71
2019-08-12 14:11:29.062500,-10.2
2019-08-12 14:11:29.078125,-7.31
2019-08-12 14:11:29.093750,-8.45
2019-08-12 14:11:29.109375,-15.67
2019-08-12 14:11:29.125000,-28.7
2019-08-12 14:11:29.140625,-45.39
2019-08-12 14:11:29.156250,-62.79
2019-08-12 14:11:29.171875,-77.28
2019-08-12 14:11:29.187500,-84.82
2019-08-12 14:11:29.203125,-81.83
2019-08-12 14:11:29.218750,-66.45
2019-08-12 14:11:29.234375,-40.22
2019-08-12 14:11:29.250000,-8.81
2019-08-12 14:11:29.265625,19.85
2019-08-12 14:11:29.281250,38.08
2019-08-12 14:11:29.296875,41.42
2019-08-12 14:11:29.312500,30.27
2019-08-12 14:11:29.328125,8.51
2019-08-12 14:11:29.343750,-18.8
2019-08-12 14:11:29.359375,-47.86
2019-08-12 14:11:29.375000,-77.26
2019-08-12 14:11:29.390625,-107.05
2019-08-12 14:11:29.406250,-136.67
2019-08-12 14:11:29.421875,-163.54
2019-08-12 14:11:29.437500,-183.07
2019-08-12 14:11:29.453125,-189.84
2019-08-12 14:11:29.468750,-180.99
2019-08-12 14:11:29.484375,-158.08
2019-08-12 14:11:29.500000,-127.01
2019-08-12 14:11:29.515625,-96.25
2019-08-12 14:11:29.531250,-73.1
2019-08-12 14:11:29.546875,-60.93
2019-08-12 14:11:29.562500,-58.61
2019-08-12 14:11:29.578125,-61.79
2019-08-12 14:11:29.593750,-64.88
2019-08-12 14:11:29.609375,-64.5
2019-08-12 14:11:29.625000,-60.43
2019-08-12 14:11:29.640625,-54.6
2019-08-12 14:11:29.656250,-49.06
2019-08-12 14:11:29.671875,-44.01
2019-08-12 14:11:29.687500,-36.73
2019-08-12 14:11:29.703125,-22.17
2019-08-12 14:11:29.718750,0.12
2019-08-12 14:11:29.734375,30.8
2019-08-12 14:11:29.750000,68.41
2019-08-12 14:11:29.765625,109.69
2019-08-12 14:11:29.781250,151.07
2019-08-12 14:11:29.796875,189.95
2019-08-12 14:11:29.812500,225.74
2019-08-12 14:11:29.828125,259.73
2019-08-12 14:11:29.843750,294.18
2019-08-12 14:11:29.859375,331.14
2019-08-12 14:11:29.875000,372.08
2019-08-12 14:11:29.890625,417.7
2019-08-12 14:11:29.906250,468.28
2019-08-12 14:11:29.921875,523.16
2019-08-12 14:11:29.937500,579.59
2019-08-12 14:11:29.953125,632.09
2019-08-12 14:11:29.968750,672.99
2019-08-12 14:11:29.984375,694.13
2019-08-12 14:11:30.000000,689.64
2019-08-12 14:11:30.015625,658.19
2019-08-12 14:11:30.031250,603.73
2019-08-12 14:11:30.046875,534.32
2019-08-12 14:11:30.062500,459.21
2019-08-12 14:11:30.078125,385.75
2019-08-12 14:11:30.093750,318.06
2019-08-12 14:11:30.109375,257.11
2019-08-12 14:11:30.125000,201.95
2019-08-12 14:11:30.140625,150.83
2019-08-12 14:11:30.156250,101.24
2019-08-12 14:11:30.171875,52.07
2019-08-12 14:11:30.187500,4.44
2019-08-12 14:11:30.203125,-38.99
2019-08-12 14:11:30.218750,-75.73
2019-08-12 14:11:30.234375,-104.35
2019-08-12 14:11:30.250000,-125.24
2019-08-12 14:11:30.265625,-140.8
2019-08-12 14:11:30.281250,-154.4
2019-08-12 14:11:30.296875,-172.64
2019-08-12 14:11:30.312500,-199.13
2019-08-12 14:11:30.328125,-232.88
2019-08-12 14:11:30.343750,-270.51
2019-08-12 14:11:30.359375,-309.01
2019-08-12 14:11:30.375000,-345.37
2019-08-12 14:11:30.390625,-374.93
2019-08-12 14:11:30.406250,-390.49
2019-08-12 14:11:30.421875,-384.12
2019-08-12 14:11:30.437500,-357.85
2019-08-12 14:11:30.453125,-316.32
2019-08-12 14:11:30.468750,-264.87
2019-08-12 14:11:30.484375,-211.54
2019-08-12 14:11:30.500000,-167.84
2019-08-12 14:11:30.515625,-143.94
2019-08-12 14:11:30.531250,-143.78
2019-08-12 14:11:30.546875,-163.96
2019-08-12 14:11:30.562500,-196.64
2019-08-12 14:11:30.578125,-245.13
2019-08-12 14:11:30.593750,-309.24
2019-08-12 14:11:30.609375,-380.58
2019-08-12 14:11:30.625000,-447.37
2019-08-12 14:11:30.640625,-501.8
2019-08-12 14:11:30.656250,-540.36
2019-08-12 14:11:30.671875,-561.9
2019-08-12 14:11:30.687500,-566.97
2019-08-12 14:11:30.703125,-558.61
2019-08-12 14:11:30.718750,-557.02
2019-08-12 14:11:30.734375,-575.42
2019-08-12 14:11:30.750000,-611.39
2019-08-12 14:11:30.765625,-654.23
2019-08-12 14:11:30.781250,-696.67
2019-08-12 14:11:30.796875,-736.97
2019-08-12 14:11:30.812500,-775.7
2019-08-12 14:11:30.828125,-812.61
2019-08-12 14:11:30.843750,-753.23
2019-08-12 14:11:30.859375,-567.73
2019-08-12 14:11:30.875000,-310.93
2019-08-12 14:11:30.890625,-63.65
2019-08-12 14:11:30.906250,132.24
2019-08-12 14:11:30.921875,271.56
2019-08-12 14:11:30.937500,363.05
2019-08-12 14:11:30.953125,418.48
2019-08-12 14:11:30.968750,449.89
2019-08-12 14:11:30.984375,468.11
2019-08-12 14:11:31.000000,466.38
2019-08-12 14:11:31.015625,442.03
2019-08-12 14:11:31.031250,403.66
2019-08-12 14:11:31.046875,364.56
2019-08-12 14:11:31.062500,332.98
2019-08-12 14:11:31.078125,311.44
2019-08-12 14:11:31.093750,300.01
2019-08-12 14:11:31.109375,297.77
2019-08-12 14:11:31.125000,302.73
2019-08-12 14:11:31.140625,300.61
2019-08-12 14:11:31.156250,282.99
2019-08-12 14:11:31.171875,253.34
2019-08-12 14:11:31.187500,221.59
2019-08-12 14:11:31.203125,194.91
2019-08-12 14:11:31.218750,176.05
2019-08-12 14:11:31.234375,165.28
2019-08-12 14:11:31.250000,161.69
2019-08-12 14:11:31.265625,163.49
2019-08-12 14:11:31.281250,161.28
2019-08-12 14:11:31.296875,149.42
2019-08-12 14:11:31.312500,129.99
2019-08-12 14:11:31.328125,109.22
2019-08-12 14:11:31.343750,91.71
2019-08-12 14:11:31.359375,79.29
2019-08-12 14:11:31.375000,72.18
2019-08-12 14:11:31.390625,69.73
2019-08-12 14:11:31.406250,70.64
2019-08-12 14:11:31.421875,69.74
2019-08-12 14:11:31.437500,63.76
2019-08-12 14:11:31.453125,53.39
2019-08-12 14:11:31.468750,41.8
2019-08-12 14:11:31.484375,31.68
2019-08-12 14:11:31.500000,24.51
2019-08-12 14:11:31.515625,20.84
2019-08-12 14:11:31.531250,20.44
2019-08-12 14:11:31.546875,22.25
2019-08-12 14:11:31.562500,23.5
2019-08-12 14:11:31.578125,22.1
2019-08-12 14:11:31.593750,17.81
2019-08-12 14:11:31.609375,11.95
2019-08-12 14:11:31.625000,6.24
2019-08-12 14:11:31.640625,2.2
2019-08-12 14:11:31.656250,0.77
2019-08-12 14:11:31.671875,1.91
2019-08-12 14:11:31.687500,4.56
2019-08-12 14:11:31.703125,7.08
2019-08-12 14:11:31.718750,8.02
2019-08-12 14:11:31.734375,6.54
2019-08-12 14:11:31.750000,3.04
2019-08-12 14:11:31.765625,-1.11
2019-08-12 14:11:31.781250,-4.16
2019-08-12 14:11:31.796875,-4.49
2019-08-12 14:11:31.812500,-0.87
2019-08-12 14:11:31.828125,7.28
2019-08-12 14:11:31.843750,19.91
2019-08-12 14:11:31.859375,35.38
2019-08-12 14:11:31.875000,50.32
2019-08-12 14:11:31.890625,60.04
2019-08-12 14:11:31.906250,60.06
2019-08-12 14:11:31.921875,48.21
2019-08-12 14:11:31.937500,26.19
2019-08-12 14:11:31.953125,-0.35
2019-08-12 14:11:31.968750,-23.93
2019-08-12 14:11:31.984375,-38.23
2019-08-12 14:11:32.000000,-40.72
2019-08-12 14:11:32.015625,-33.29
2019-08-12 14:11:32.031250,-20.85
2019-08-12 14:11:32.046875,-8.77
2019-08-12 14:11:32.062500,-0.53
2019-08-12 14:11:32.078125,2.97
2019-08-12 14:11:32.093750,2.76
2019-08-12 14:11:32.109375,0.52
2019-08-12 14:11:32.125000,-2.43
2019-08-12 14:11:32.140625,-5.36
2019-08-12 14:11:32.156250,-7.59
2019-08-12 14:11:32.171875,-8.27
2019-08-12 14:11:32.187500,-6.67
2019-08-12 14:11:32.203125,-2.59
2019-08-12 14:11:32.218750,3.33
2019-08-12 14:11:32.234375,9.39
2019-08-12 14:11:32.250000,13.51
2019-08-12 14:11:32.265625,13.8
2019-08-12 14:11:32.281250,9.34
2019-08-12 14:11:32.296875,0.68
2019-08-12 14:11:32.312500,-10.64
2019-08-12 14:11:32.328125,-22.75
2019-08-12 14:11:32.343750,-34.09
2019-08-12 14:11:32.359375,-44.06
2019-08-12 14:11:32.375000,-52.84
2019-08-12 14:11:32.390625,-60.8
2019-08-12 14:11:32.406250,-68.63
2019-08-12 14:11:32.421875,-76.4
2019-08-12 14:11:32.437500,-83.18
2019-08-12 14:11:32.453125,-87.7
2019-08-12 14:11:32.468750,-89.03
2019-08-12 14:11:32.484375,-87.14
2019-08-12 14:11:32.500000,-83.24
2019-08-12 14:11:32.515625,-79.7
2019-08-12 14:11:32.531250,-79.03
2019-08-12 14:11:32.546875,-84.46
2019-08-12 14:11:32.562500,-97.5
2019-08-12 14:11:32.578125,-116.16
2019-08-12 14:11:32.593750,-135.13
2019-08-12 14:11:32.609375,-146.92
2019-08-12 14:11:32.625000,-144.52
2019-08-12 14:11:32.640625,-124.55
2019-08-12 14:11:32.656250,-89.07
2019-08-12 14:11:32.671875,-44.68
2019-08-12 14:11:32.687500,-1.65
2019-08-12 14:11:32.703125,31.26
2019-08-12 14:11:32.718750,50.48
2019-08-12 14:11:32.734375,58.08
2019-08-12 14:11:32.750000,60.36
2019-08-12 14:11:32.765625,65.14
2019-08-12 14:11:32.781250,78.79
2019-08-12 14:11:32.796875,98.64
2019-08-12 14:11:32.812500,125.85
2019-08-12 14:11:32.828125,155.8
2019-08-12 14:11:32.843750,177.9
2019-08-12 14:11:32.859375,183.27
2019-08-12 14:11:32.875000,165.99
2019-08-12 14:11:32.890625,124.61
2019-08-12 14:11:32.906250,62.81
2019-08-12 14:11:32.921875,-11.31
2019-08-12 14:11:32.937500,-87.23
2019-08-12 14:11:32.953125,-153.47
2019-08-12 14:11:32.968750,-202.05
2019-08-12 14:11:32.984375,-228.76
2019-08-12 14:11:33.000000,-233.31
2019-08-12 14:11:33.015625,-219.24
2019-08-12 14:11:33.031250,-192.54
2019-08-12 14:11:33.046875,-159.68
2019-08-12 14:11:33.062500,-126.28
2019-08-12 14:11:33.078125,-96.2
2019-08-12 14:11:33.093750,-70.75
2019-08-12 14:11:33.109375,-50.61
2019-08-12 14:11:33.125000,-35.09
2019-08-12 14:11:33.140625,-22.01
2019-08-12 14:11:33.156250,-8.12
2019-08-12 14:11:33.171875,10.52
2019-08-12 14:11:33.187500,37.91
2019-08-12 14:11:33.203125,76.87
2019-08-12 14:11:33.218750,127.57
2019-08-12 14:11:33.234375,186.77
2019-08-12 14:11:33.250000,246.83
2019-08-12 14:11:33.265625,297.4
2019-08-12 14:11:33.281250,328.61
2019-08-12 14:11:33.296875,334.01
2019-08-12 14:11:33.312500,312.96
2019-08-12 14:11:33.328125,270.96
2019-08-12 14:11:33.343750,217.57
2019-08-12 14:11:33.359375,162.58
2019-08-12 14:11:33.375000,112.83
2019-08-12 14:11:33.390625,70.17
2019-08-12 14:11:33.406250,32.4
2019-08-12 14:11:33.421875,-4.47
2019-08-12 14:11:33.437500,-44.2
2019-08-12 14:11:33.453125,-88.81
2019-08-12 14:11:33.468750,-137.91
2019-08-12 14:11:33.484375,-188.5
2019-08-12 14:11:33.500000,-235.5
2019-08-12 14:11:33.515625,-272.59
2019-08-12 14:11:33.531250,-294.06
2019-08-12 14:11:33.546875,-296.61
2019-08-12 14:11:33.562500,-280.51
2019-08-12 14:11:33.578125,-249.25
2019-08-12 14:11:33.593750,-207.78
2019-08-12 14:11:33.609375,-160.64
2019-08-12 14:11:33.625000,-111.28
2019-08-12 14:11:33.640625,-62.51
2019-08-12 14:11:33.656250,-17.99
2019-08-12 14:11:33.671875,17.27
2019-08-12 14:11:33.687500,37.78
2019-08-12 14:11:33.703125,39.52
2019-08-12 14:11:33.718750,21.22
2019-08-12 14:11:33.734375,-15.73
2019-08-12 14:11:33.750000,-68.53
2019-08-12 14:11:33.765625,-134.08
2019-08-12 14:11:33.781250,-208.58
2019-08-12 14:11:33.796875,-286.2
2019-08-12 14:11:33.812500,-358.0
2019-08-12 14:11:33.828125,-413.16
2019-08-12 14:11:33.843750,-441.92
2019-08-12 14:11:33.859375,-439.46
2019-08-12 14:11:33.875000,-408.23
2019-08-12 14:11:33.890625,-357.1
2019-08-12 14:11:33.906250,-297.76
2019-08-12 14:11:33.921875,-240.24
2019-08-12 14:11:33.937500,-190.06
2019-08-12 14:11:33.953125,-147.74
2019-08-12 14:11:33.968750,-110.65
2019-08-12 14:11:33.984375,-75.37
2019-08-12 14:11:34.000000,-39.27
2019-08-12 14:11:34.015625,-0.69
2019-08-12 14:11:34.031250,41.39
2019-08-12 14:11:34.046875,87.29
2019-08-12 14:11:34.062500,135.79
2019-08-12 14:11:34.078125,183.11
2019-08-12 14:11:34.093750,223.12
2019-08-12 14:11:34.109375,249.25
2019-08-12 14:11:34.125000,257.45
2019-08-12 14:11:34.140625,249.04
2019-08-12 14:11:34.156250,231.06
2019-08-12 14:11:34.171875,213.98
2019-08-12 14:11:34.187500,207.31
2019-08-12 14:11:34.203125,215.42
2019-08-12 14:11:34.218750,235.87
2019-08-12 14:11:34.234375,261.07
2019-08-12 14:11:34.250000,282.07
2019-08-12 14:11:34.265625,292.55
2019-08-12 14:11:34.281250,291.21
2019-08-12 14:11:34.296875,281.48
2019-08-12 14:11:34.312500,269.1
2019-08-12 14:11:34.328125,259.22
2019-08-12 14:11:34.343750,254.21
2019-08-12 14:11:34.359375,253.38
2019-08-12 14:11:34.375000,254.0
2019-08-12 14:11:34.390625,253.22
2019-08-12 14:11:34.406250,249.24
2019-08-12 14:11:34.421875,241.55
2019-08-12 14:11:34.437500,229.73
2019-08-12 14:11:34.453125,212.5
2019-08-12 14:11:34.468750,187.57
2019-08-12 14:11:34.484375,152.94
2019-08-12 14:11:34.500000,109.13
2019-08-12 14:11:34.515625,60.65
2019-08-12 14:11:34.531250,15.88
2019-08-12 14:11:34.546875,-15.19
2019-08-12 14:11:34.562500,-24.34
2019-08-12 14:11:34.578125,-8.09
2019-08-12 14:11:34.593750,31.07
2019-08-12 14:11:34.609375,85.01
2019-08-12 14:11:34.625000,142.1
2019-08-12 14:11:34.640625,190.28
2019-08-12 14:11:34.656250,220.03
2019-08-12 14:11:34.671875,226.91
2019-08-12 14:11:34.687500,212.7
2019-08-12 14:11:34.703125,184.14
2019-08-12 14:11:34.718750,149.97
2019-08-12 14:11:34.734375,117.21
2019-08-12 14:11:34.750000,88.45
2019-08-12 14:11:34.765625,61.77
2019-08-12 14:11:34.781250,33.05
2019-08-12 14:11:34.796875,-0.45
2019-08-12 14:11:34.812500,-37.86
2019-08-12 14:11:34.828125,-74.68
2019-08-12 14:11:34.843750,-105.03
2019-08-12 14:11:34.859375,-124.64
2019-08-12 14:11:34.875000,-132.54
2019-08-12 14:11:34.890625,-130.73
2019-08-12 14:11:34.906250,-122.34
2019-08-12 14:11:34.921875,-109.75
2019-08-12 14:11:34.937500,-94.03
2019-08-12 14:11:34.953125,-75.48
2019-08-12 14:11:34.968750,-54.96
2019-08-12 14:11:34.984375,-34.48
2019-08-12 14:11:35.000000,-16.96
2019-08-12 14:11:35.015625,-5.17
2019-08-12 14:11:35.031250,-0.42
2019-08-12 14:11:35.046875,-1.59
2019-08-12 14:11:35.062500,-5.26
2019-08-12 14:11:35.078125,-6.66
2019-08-12 14:11:35.093750,-1.12
2019-08-12 14:11:35.109375,13.9
2019-08-12 14:11:35.125000,37.37
2019-08-12 14:11:35.140625,64.58
2019-08-12 14:11:35.156250,88.48
2019-08-12 14:11:35.171875,102.37
2019-08-12 14:11:35.187500,102.7
2019-08-12 14:11:35.203125,90.29
2019-08-12 14:11:35.218750,69.77
2019-08-12 14:11:35.234375,46.93
2019-08-12 14:11:35.250000,26.19
2019-08-12 14:11:35.265625,9.06
2019-08-12 14:11:35.281250,-5.39
2019-08-12 14:11:35.296875,-18.8
2019-08-12 14:11:35.312500,-32.06
2019-08-12 14:11:35.328125,-45.01
2019-08-12 14:11:35.343750,-57.46
2019-08-12 14:11:35.359375,-69.96
2019-08-12 14:11:35.375000,-83.52
2019-08-12 14:11:35.390625,-98.02
2019-08-12 14:11:35.406250,-110.51
2019-08-12 14:11:35.421875,-115.05
2019-08-12 14:11:35.437500,-105.0
2019-08-12 14:11:35.453125,-76.6
2019-08-12 14:11:35.468750,-32.02
2019-08-12 14:11:35.484375,20.34
2019-08-12 14:11:35.500000,68.87
2019-08-12 14:11:35.515625,103.59
2019-08-12 14:11:35.531250,120.48
2019-08-12 14:11:35.546875,122.71
2019-08-12 14:11:35.562500,118.69
2019-08-12 14:11:35.578125,117.6
2019-08-12 14:11:35.593750,125.25
2019-08-12 14:11:35.609375,141.79
2019-08-12 14:11:35.625000,162.28
2019-08-12 14:11:35.640625,179.57
2019-08-12 14:11:35.656250,187.56
2019-08-12 14:11:35.671875,183.47
2019-08-12 14:11:35.687500,168.38
2019-08-12 14:11:35.703125,145.93
2019-08-12 14:11:35.718750,120.38
2019-08-12 14:11:35.734375,94.77
2019-08-12 14:11:35.750000,70.28
2019-08-12 14:11:35.765625,46.61
2019-08-12 14:11:35.781250,23.29
2019-08-12 14:11:35.796875,0.72
2019-08-12 14:11:35.812500,-19.61
2019-08-12 14:11:35.828125,-36.27
2019-08-12 14:11:35.843750,-49.1
2019-08-12 14:11:35.859375,-60.19
2019-08-12 14:11:35.875000,-73.48
2019-08-12 14:11:35.890625,-93.04
2019-08-12 14:11:35.906250,-121.26
2019-08-12 14:11:35.921875,-157.88
2019-08-12 14:11:35.937500,-200.53
2019-08-12 14:11:35.953125,-245.91
2019-08-12 14:11:35.968750,-290.8
2019-08-12 14:11:35.984375,-332.01
2019-08-12 14:11:36.000000,-365.91
2019-08-12 14:11:36.015625,-388.18
2019-08-12 14:11:36.031250,-394.48
2019-08-12 14:11:36.046875,-382.4
2019-08-12 14:11:36.062500,-352.57
2019-08-12 14:11:36.078125,-309.24
2019-08-12 14:11:36.093750,-258.79
2019-08-12 14:11:36.109375,-207.2
2019-08-12 14:11:36.125000,-158.09
2019-08-12 14:11:36.140625,-111.96
2019-08-12 14:11:36.156250,-67.07
2019-08-12 14:11:36.171875,-21.13
2019-08-12 14:11:36.187500,27.26
2019-08-12 14:11:36.203125,77.78
2019-08-12 14:11:36.218750,128.38
2019-08-12 14:11:36.234375,175.94
2019-08-12 14:11:36.250000,217.29
2019-08-12 14:11:36.265625,250.23
2019-08-12 14:11:36.281250,274.16
2019-08-12 14:11:36.296875,290.12
2019-08-12 14:11:36.312500,300.16
2019-08-12 14:11:36.328125,306.02
2019-08-12 14:11:36.343750,308.48
2019-08-12 14:11:36.359375,307.32
2019-08-12 14:11:36.375000,302.11
2019-08-12 14:11:36.390625,293.02
2019-08-12 14:11:36.406250,281.0
2019-08-12 14:11:36.421875,267.13
2019-08-12 14:11:36.437500,251.39
2019-08-12 14:11:36.453125,232.21
2019-08-12 14:11:36.468750,207.11
2019-08-12 14:11:36.484375,174.15
2019-08-12 14:11:36.500000,133.58
2019-08-12 14:11:36.515625,88.22
2019-08-12 14:11:36.531250,42.47
2019-08-12 14:11:36.546875,0.07
2019-08-12 14:11:36.562500,-37.42
2019-08-12 14:11:36.578125,-71.65
2019-08-12 14:11:36.593750,-106.91
2019-08-12 14:11:36.609375,-148.18
2019-08-12 14:11:36.625000,-198.73
2019-08-12 14:11:36.640625,-257.96
2019-08-12 14:11:36.656250,-320.6
2019-08-12 14:11:36.671875,-377.55
2019-08-12 14:11:36.687500,-418.58
2019-08-12 14:11:36.703125,-435.6
2019-08-12 14:11:36.718750,-425.59
2019-08-12 14:11:36.734375,-391.95
2019-08-12 14:11:36.750000,-343.42
2019-08-12 14:11:36.765625,-291.17
2019-08-12 14:11:36.781250,-245.12
2019-08-12 14:11:36.796875,-210.69
2019-08-12 14:11:36.812500,-187.43
2019-08-12 14:11:36.828125,-169.91
2019-08-12 14:11:36.843750,-150.33
2019-08-12 14:11:36.859375,-121.91
2019-08-12 14:11:36.875000,-81.65
2019-08-12 14:11:36.890625,-31.41
2019-08-12 14:11:36.906250,22.95
2019-08-12 14:11:36.921875,74.08
2019-08-12 14:11:36.937500,116.03
2019-08-12 14:11:36.953125,146.18
2019-08-12 14:11:36.968750,165.75
2019-08-12 14:11:36.984375,178.43
2019-08-12 14:11:37.000000,188.67
2019-08-12 14:11:37.015625,200.07
2019-08-12 14:11:37.031250,214.88
2019-08-12 14:11:37.046875,233.95
2019-08-12 14:11:37.062500,256.97
2019-08-12 14:11:37.078125,282.46
2019-08-12 14:11:37.093750,307.72
2019-08-12 14:11:37.109375,329.22
2019-08-12 14:11:37.125000,343.63
2019-08-12 14:11:37.140625,349.22
2019-08-12 14:11:37.156250,346.56
2019-08-12 14:11:37.171875,338.58
2019-08-12 14:11:37.187500,329.31
2019-08-12 14:11:37.203125,322.39
2019-08-12 14:11:37.218750,319.98
2019-08-12 14:11:37.234375,322.25
2019-08-12 14:11:37.250000,327.74
2019-08-12 14:11:37.265625,333.79
2019-08-12 14:11:37.281250,337.13
2019-08-12 14:11:37.296875,334.32
2019-08-12 14:11:37.312500,322.54
2019-08-12 14:11:37.328125,300.54
2019-08-12 14:11:37.343750,269.24
2019-08-12 14:11:37.359375,231.88
2019-08-12 14:11:37.375000,193.06
2019-08-12 14:11:37.390625,157.15
2019-08-12 14:11:37.406250,126.79
2019-08-12 14:11:37.421875,102.18
2019-08-12 14:11:37.437500,81.38
2019-08-12 14:11:37.453125,61.59
2019-08-12 14:11:37.468750,40.52
2019-08-12 14:11:37.484375,17.33
2019-08-12 14:11:37.500000,-7.09
2019-08-12 14:11:37.515625,-30.93
2019-08-12 14:11:37.531250,-52.38
2019-08-12 14:11:37.546875,-70.64
2019-08-12 14:11:37.562500,-86.31
2019-08-12 14:11:37.578125,-101.22
2019-08-12 14:11:37.593750,-117.48
2019-08-12 14:11:37.609375,-136.73
2019-08-12 14:11:37.625000,-159.56
2019-08-12 14:11:37.640625,-185.55
2019-08-12 14:11:37.656250,-213.58
2019-08-12 14:11:37.671875,-241.98
2019-08-12 14:11:37.687500,-268.56
2019-08-12 14:11:37.703125,-290.6
2019-08-12 14:11:37.718750,-305.25
2019-08-12 14:11:37.734375,-310.26
2019-08-12 14:11:37.750000,-304.88
2019-08-12 14:11:37.765625,-290.37
2019-08-12 14:11:37.781250,-269.57
2019-08-12 14:11:37.796875,-245.58
2019-08-12 14:11:37.812500,-220.46
2019-08-12 14:11:37.828125,-194.54
2019-08-12 14:11:37.843750,-167.17
2019-08-12 14:11:37.859375,-138.29
2019-08-12 14:11:37.875000,-109.82
2019-08-12 14:11:37.890625,-85.73
2019-08-12 14:11:37.906250,-70.6
2019-08-12 14:11:37.921875,-67.55
2019-08-12 14:11:37.937500,-76.39
2019-08-12 14:11:37.953125,-93.7
2019-08-12 14:11:37.968750,-114.35
2019-08-12 14:11:37.984375,-133.77
2019-08-12 14:11:38.000000,-150.01
2019-08-12 14:11:38.015625,-164.48
2019-08-12 14:11:38.031250,-181.42
2019-08-12 14:11:38.046875,-205.83
2019-08-12 14:11:38.062500,-240.9
2019-08-12 14:11:38.078125,-285.86
2019-08-12 14:11:38.093750,-335.31
2019-08-12 14:11:38.109375,-380.41
2019-08-12 14:11:38.125000,-411.94
2019-08-12 14:11:38.140625,-423.85
2019-08-12 14:11:38.156250,-415.77
2019-08-12 14:11:38.171875,-392.82
2019-08-12 14:11:38.187500,-362.83
2019-08-12 14:11:38.203125,-332.75
2019-08-12 14:11:38.218750,-306.19
2019-08-12 14:11:38.234375,-283.45
2019-08-12 14:11:38.250000,-263.64
2019-08-12 14:11:38.265625,-246.93
2019-08-12 14:11:38.281250,-235.31
2019-08-12 14:11:38.296875,-231.07
2019-08-12 14:11:38.312500,-234.66
2019-08-12 14:11:38.328125,-242.92
2019-08-12 14:11:38.343750,-249.41
2019-08-12 14:11:38.359375,-246.93
2019-08-12 14:11:38.375000,-230.56
2019-08-12 14:11:38.390625,-199.75
2019-08-12 14:11:38.406250,-158.17
2019-08-12 14:11:38.421875,-111.97
2019-08-12 14:11:38.437500,-66.91
2019-08-12 14:11:38.453125,-27.02
2019-08-12 14:11:38.468750,5.85
2019-08-12 14:11:38.484375,31.09
2019-08-12 14:11:38.500000,48.43
2019-08-12 14:11:38.515625,57.71
2019-08-12 14:11:38.531250,59.44
2019-08-12 14:11:38.546875,56.07
2019-08-12 14:11:38.562500,52.21
2019-08-12 14:11:38.578125,54.02
2019-08-12 14:11:38.593750,65.87
2019-08-12 14:11:38.609375,88.36
2019-08-12 14:11:38.625000,117.49
2019-08-12 14:11:38.640625,146.51
2019-08-12 14:11:38.656250,169.23
2019-08-12 14:11:38.671875,182.83
2019-08-12 14:11:38.687500,190.08
2019-08-12 14:11:38.703125,198.13
2019-08-12 14:11:38.718750,215.95
2019-08-12 14:11:38.734375,247.94
2019-08-12 14:11:38.750000,291.67
2019-08-12 14:11:38.765625,337.94
2019-08-12 14:11:38.781250,375.14
2019-08-12 14:11:38.796875,393.34
2019-08-12 14:11:38.812500,386.38
2019-08-12 14:11:38.828125,354.07
2019-08-12 14:11:38.843750,301.77
2019-08-12 14:11:38.859375,240.61
2019-08-12 14:11:38.875000,181.87
2019-08-12 14:11:38.890625,136.25
2019-08-12 14:11:38.906250,111.84
2019-08-12 14:11:38.921875,113.73
2019-08-12 14:11:38.937500,141.62
2019-08-12 14:11:38.953125,186.31
2019-08-12 14:11:38.968750,232.87
2019-08-12 14:11:38.984375,265.69
2019-08-12 14:11:39.000000,277.49
2019-08-12 14:11:39.015625,267.28
2019-08-12 14:11:39.031250,241.61
2019-08-12 14:11:39.046875,210.29
2019-08-12 14:11:39.062500,183.9
2019-08-12 14:11:39.078125,169.64
2019-08-12 14:11:39.093750,166.83
2019-08-12 14:11:39.109375,170.31
2019-08-12 14:11:39.125000,173.98
2019-08-12 14:11:39.140625,177.27
2019-08-12 14:11:39.156250,178.0
2019-08-12 14:11:39.171875,173.13
2019-08-12 14:11:39.187500,157.23
2019-08-12 14:11:39.203125,125.88
2019-08-12 14:11:39.218750,92.48
2019-08-12 14:11:39.234375,70.47
2019-08-12 14:11:39.250000,67.46
2019-08-12 14:11:39.265625,56.72
2019-08-12 14:11:39.281250,31.35
2019-08-12 14:11:39.296875,-10.5
2019-08-12 14:11:39.312500,-56.04
2019-08-12 14:11:39.328125,-100.38
2019-08-12 14:11:39.343750,-140.71
2019-08-12 14:11:39.359375,-175.61
2019-08-12 14:11:39.375000,-207.15
2019-08-12 14:11:39.390625,-237.89
2019-08-12 14:11:39.406250,-269.35
2019-08-12 14:11:39.421875,-297.13
2019-08-12 14:11:39.437500,-318.94
2019-08-12 14:11:39.453125,-333.8
2019-08-12 14:11:39.468750,-343.82
2019-08-12 14:11:39.484375,-350.82
2019-08-12 14:11:39.500000,-356.75
2019-08-12 14:11:39.515625,-365.65
2019-08-12 14:11:39.531250,-381.37
2019-08-12 14:11:39.546875,-406.36
2019-08-12 14:11:39.562500,-438.17
2019-08-12 14:11:39.578125,-475.83
2019-08-12 14:11:39.593750,-519.05
2019-08-12 14:11:39.609375,-568.5
2019-08-12 14:11:39.625000,-621.88
2019-08-12 14:11:39.640625,-673.33
2019-08-12 14:11:39.656250,-715.28
2019-08-12 14:11:39.671875,-739.67
2019-08-12 14:11:39.687500,-740.52
2019-08-12 14:11:39.703125,-714.28
2019-08-12 14:11:39.718750,-664.4
2019-08-12 14:11:39.734375,-598.93
2019-08-12 14:11:39.750000,-527.98
2019-08-12 14:11:39.765625,-459.0
2019-08-12 14:11:39.781250,-395.7
2019-08-12 14:11:39.796875,-339.35
2019-08-12 14:11:39.812500,-289.95
2019-08-12 14:11:39.828125,-247.34
2019-08-12 14:11:39.843750,-210.41
2019-08-12 14:11:39.859375,-178.33
2019-08-12 14:11:39.875000,-149.53
2019-08-12 14:11:39.890625,-121.96
2019-08-12 14:11:39.906250,-93.06
2019-08-12 14:11:39.921875,-60.95
2019-08-12 14:11:39.937500,-25.51
2019-08-12 14:11:39.953125,11.93
2019-08-12 14:11:39.968750,49.2
2019-08-12 14:11:39.984375,84.73
2019-08-12 14:11:40.000000,117.62
2019-08-12 14:11:40.015625,147.9
2019-08-12 14:11:40.031250,176.05
2019-08-12 14:11:40.046875,202.62
2019-08-12 14:11:40.062500,227.55
2019-08-12 14:11:40.078125,249.96
2019-08-12 14:11:40.093750,268.44
2019-08-12 14:11:40.109375,281.69
2019-08-12 14:11:40.125000,289.17
2019-08-12 14:11:40.140625,291.43
2019-08-12 14:11:40.156250,289.99
2019-08-12 14:11:40.171875,286.81
2019-08-12 14:11:40.187500,283.63
2019-08-12 14:11:40.203125,281.51
2019-08-12 14:11:40.218750,280.67
2019-08-12 14:11:40.234375,280.77
2019-08-12 14:11:40.250000,281.3
2019-08-12 14:11:40.265625,282.06
2019-08-12 14:11:40.281250,283.34
2019-08-12 14:11:40.296875,285.91
2019-08-12 14:11:40.312500,290.86
2019-08-12 14:11:40.328125,299.21
2019-08-12 14:11:40.343750,311.43
2019-08-12 14:11:40.359375,326.9
2019-08-12 14:11:40.375000,343.62
2019-08-12 14:11:40.390625,358.39
2019-08-12 14:11:40.406250,367.65
2019-08-12 14:11:40.421875,368.52
2019-08-12 14:11:40.437500,359.88
2019-08-12 14:11:40.453125,342.62
2019-08-12 14:11:40.468750,319.35
2019-08-12 14:11:40.484375,293.31
2019-08-12 14:11:40.500000,267.36
2019-08-12 14:11:40.515625,243.25
2019-08-12 14:11:40.531250,221.65
2019-08-12 14:11:40.546875,202.46
2019-08-12 14:11:40.562500,185.47
2019-08-12 14:11:40.578125,170.59
2019-08-12 14:11:40.593750,157.72
2019-08-12 14:11:40.609375,146.62
2019-08-12 14:11:40.625000,136.69
2019-08-12 14:11:40.640625,127.05
2019-08-12 14:11:40.656250,116.85
2019-08-12 14:11:40.671875,105.54
2019-08-12 14:11:40.687500,93.07
2019-08-12 14:11:40.703125,79.86
2019-08-12 14:11:40.718750,66.59
2019-08-12 14:11:40.734375,53.89
2019-08-12 14:11:40.750000,42.24
2019-08-12 14:11:40.765625,31.81
2019-08-12 14:11:40.781250,22.56
2019-08-12 14:11:40.796875,14.3
2019-08-12 14:11:40.812500,6.79
2019-08-12 14:11:40.828125,-0.27
2019-08-12 14:11:40.843750,-7.06
2019-08-12 14:11:40.859375,-13.54
2019-08-12 14:11:40.875000,-19.34
2019-08-12 14:11:40.890625,-23.7
2019-08-12 14:11:40.906250,-25.75
2019-08-12 14:11:40.921875,-24.8
2019-08-12 14:11:40.937500,-20.62
2019-08-12 14:11:40.953125,-13.61
2019-08-12 14:11:40.968750,-4.65
2019-08-12 14:11:40.984375,5.18
2019-08-12 14:11:41.000000,14.84
2019-08-12 14:11:41.015625,23.44
2019-08-12 14:11:41.031250,30.27
2019-08-12 14:11:41.046875,34.73
2019-08-12 14:11:41.062500,36.35
2019-08-12 14:11:41.078125,34.99
2019-08-12 14:11:41.093750,30.92
2019-08-12 14:11:41.109375,24.98
2019-08-12 14:11:41.125000,18.37
2019-08-12 14:11:41.140625,12.37
2019-08-12 14:11:41.156250,7.91
2019-08-12 14:11:41.171875,5.39
2019-08-12 14:11:41.187500,4.62
2019-08-12 14:11:41.203125,5.02
2019-08-12 14:11:41.218750,5.9
2019-08-12 14:11:41.234375,6.7
2019-08-12 14:11:41.250000,7.04
2019-08-12 14:11:41.265625,6.74
2019-08-12 14:11:41.281250,5.66
2019-08-12 14:11:41.296875,3.7
2019-08-12 14:11:41.312500,0.8
2019-08-12 14:11:41.328125,-3.03
2019-08-12 14:11:41.343750,-7.58
2019-08-12 14:11:41.359375,-12.58
2019-08-12 14:11:41.375000,-17.67
2019-08-12 14:11:41.390625,-22.52
2019-08-12 14:11:41.406250,-26.95
2019-08-12 14:11:41.421875,-30.95
2019-08-12 14:11:41.437500,-34.65
2019-08-12 14:11:41.453125,-38.32
2019-08-12 14:11:41.468750,-42.29
2019-08-12 14:11:41.484375,-46.81
2019-08-12 14:11:41.500000,-51.98
2019-08-12 14:11:41.515625,-57.64
2019-08-12 14:11:41.531250,-63.31
2019-08-12 14:11:41.546875,-68.19
2019-08-12 14:11:41.562500,-71.3
2019-08-12 14:11:41.578125,-71.79
2019-08-12 14:11:41.593750,-69.17
2019-08-12 14:11:41.609375,-63.45
2019-08-12 14:11:41.625000,-55.05
2019-08-12 14:11:41.640625,-44.6
2019-08-12 14:11:41.656250,-32.72
2019-08-12 14:11:41.671875,-19.91
2019-08-12 14:11:41.687500,-6.6
2019-08-12 14:11:41.703125,6.72
2019-08-12 14:11:41.718750,19.5
2019-08-12 14:11:41.734375,31.12
2019-08-12 14:11:41.750000,41.18
2019-08-12 14:11:41.765625,49.59
2019-08-12 14:11:41.781250,56.64
2019-08-12 14:11:41.796875,62.84
2019-08-12 14:11:41.812500,68.69
2019-08-12 14:11:41.828125,74.34
2019-08-12 14:11:41.843750,79.61
2019-08-12 14:11:41.859375,84.05
2019-08-12 14:11:41.875000,87.11
2019-08-12 14:11:41.890625,88.36
2019-08-12 14:11:41.906250,87.59
2019-08-12 14:11:41.921875,84.86
2019-08-12 14:11:41.937500,80.38
2019-08-12 14:11:41.953125,74.48
2019-08-12 14:11:41.968750,67.43
2019-08-12 14:11:41.984375,59.45
2019-08-12 14:11:42.000000,50.68
2019-08-12 14:11:42.015625,41.24
2019-08-12 14:11:42.031250,31.33
2019-08-12 14:11:42.046875,21.22
2019-08-12 14:11:42.062500,11.28
2019-08-12 14:11:42.078125,1.87
2019-08-12 14:11:42.093750,-6.73
2019-08-12 14:11:42.109375,-14.35
2019-08-12 14:11:42.125000,-20.92
2019-08-12 14:11:42.140625,-26.52
2019-08-12 14:11:42.156250,-31.47
2019-08-12 14:11:42.171875,-36.08
2019-08-12 14:11:42.187500,-40.65
2019-08-12 14:11:42.203125,-45.15
2019-08-12 14:11:42.218750,-49.12
2019-08-12 14:11:42.234375,-51.64
2019-08-12 14:11:42.250000,-51.57
2019-08-12 14:11:42.265625,-47.98
2019-08-12 14:11:42.281250,-40.62
2019-08-12 14:11:42.296875,-30.14
2019-08-12 14:11:42.312500,-17.91
2019-08-12 14:11:42.328125,-5.68
2019-08-12 14:11:42.343750,4.99
2019-08-12 14:11:42.359375,13.11
2019-08-12 14:11:42.375000,18.36
2019-08-12 14:11:42.390625,20.93
2019-08-12 14:11:42.406250,21.37
2019-08-12 14:11:42.421875,20.26
2019-08-12 14:11:42.437500,18.14
2019-08-12 14:11:42.453125,15.6
2019-08-12 14:11:42.468750,13.23
2019-08-12 14:11:42.484375,11.58
2019-08-12 14:11:42.500000,11.06
2019-08-12 14:11:42.515625,11.74
2019-08-12 14:11:42.531250,13.28
2019-08-12 14:11:42.546875,15.04
2019-08-12 14:11:42.562500,16.34
2019-08-12 14:11:42.578125,16.66
2019-08-12 14:11:42.593750,15.89
2019-08-12 14:11:42.609375,14.23
2019-08-12 14:11:42.625000,12.09
2019-08-12 14:11:42.640625,9.9
2019-08-12 14:11:42.656250,7.91
2019-08-12 14:11:42.671875,6.17
2019-08-12 14:11:42.687500,4.52
2019-08-12 14:11:42.703125,2.75
2019-08-12 14:11:42.718750,0.69
2019-08-12 14:11:42.734375,-1.74
2019-08-12 14:11:42.750000,-4.51
2019-08-12 14:11:42.765625,-7.49
2019-08-12 14:11:42.781250,-10.53
2019-08-12 14:11:42.796875,-13.54
2019-08-12 14:11:42.812500,-16.56
2019-08-12 14:11:42.828125,-19.77
2019-08-12 14:11:42.843750,-23.38
2019-08-12 14:11:42.859375,-27.44
2019-08-12 14:11:42.875000,-31.69
2019-08-12 14:11:42.890625,-35.52
2019-08-12 14:11:42.906250,-37.99
2019-08-12 14:11:42.921875,-38.09
2019-08-12 14:11:42.937500,-35.22
2019-08-12 14:11:42.953125,-29.33
2019-08-12 14:11:42.968750,-21.11
2019-08-12 14:11:42.984375,-11.81
2019-08-12 14:11:43.000000,-2.83
2019-08-12 14:11:43.015625,4.64
2019-08-12 14:11:43.031250,9.85
2019-08-12 14:11:43.046875,12.61
2019-08-12 14:11:43.062500,13.03
2019-08-12 14:11:43.078125,11.43
2019-08-12 14:11:43.093750,8.12
2019-08-12 14:11:43.109375,3.44
2019-08-12 14:11:43.125000,-2.13
2019-08-12 14:11:43.140625,-8.03
2019-08-12 14:11:43.156250,-13.63
2019-08-12 14:11:43.171875,-18.45
2019-08-12 14:11:43.187500,-22.32
2019-08-12 14:11:43.203125,-25.43
2019-08-12 14:11:43.218750,-28.3
2019-08-12 14:11:43.234375,-31.45
2019-08-12 14:11:43.250000,-35.31
2019-08-12 14:11:43.265625,-39.99
2019-08-12 14:11:43.281250,-45.38
2019-08-12 14:11:43.296875,-51.22
2019-08-12 14:11:43.312500,-57.36
2019-08-12 14:11:43.328125,-63.67
2019-08-12 14:11:43.343750,-70.17
2019-08-12 14:11:43.359375,-76.87
2019-08-12 14:11:43.375000,-83.63
2019-08-12 14:11:43.390625,-90.24
2019-08-12 14:11:43.406250,-96.45
2019-08-12 14:11:43.421875,-102.11
2019-08-12 14:11:43.437500,-107.26
2019-08-12 14:11:43.453125,-112.05
2019-08-12 14:11:43.468750,-116.54
2019-08-12 14:11:43.484375,-120.5
2019-08-12 14:11:43.500000,-123.21
2019-08-12 14:11:43.515625,-123.62
2019-08-12 14:11:43.531250,-120.66
2019-08-12 14:11:43.546875,-113.6
2019-08-12 14:11:43.562500,-102.31
2019-08-12 14:11:43.578125,-87.22
2019-08-12 14:11:43.593750,-69.06
2019-08-12 14:11:43.609375,-48.47
2019-08-12 14:11:43.625000,-25.98
2019-08-12 14:11:43.640625,-1.96
2019-08-12 14:11:43.656250,23.16
2019-08-12 14:11:43.671875,48.76
2019-08-12 14:11:43.687500,74.18
2019-08-12 14:11:43.703125,99.05
2019-08-12 14:11:43.718750,123.44
2019-08-12 14:11:43.734375,147.7
2019-08-12 14:11:43.750000,171.96
2019-08-12 14:11:43.765625,195.45
2019-08-12 14:11:43.781250,216.34
2019-08-12 14:11:43.796875,232.22
2019-08-12 14:11:43.812500,240.9
2019-08-12 14:11:43.828125,241.49
2019-08-12 14:11:43.843750,234.75
2019-08-12 14:11:43.859375,222.75
2019-08-12 14:11:43.875000,208.11
2019-08-12 14:11:43.890625,192.95
2019-08-12 14:11:43.906250,178.39
2019-08-12 14:11:43.921875,164.46
2019-08-12 14:11:43.937500,150.62
2019-08-12 14:11:43.953125,136.13
2019-08-12 14:11:43.968750,120.59
2019-08-12 14:11:43.984375,104.0
2019-08-12 14:11:44.000000,86.63
2019-08-12 14:11:44.015625,68.9
2019-08-12 14:11:44.031250,51.22
2019-08-12 14:11:44.046875,34.05
2019-08-12 14:11:44.062500,17.92
2019-08-12 14:11:44.078125,3.62
2019-08-12 14:11:44.093750,-8.03
2019-08-12 14:11:44.109375,-16.35
2019-08-12 14:11:44.125000,-21.26
2019-08-12 14:11:44.140625,-23.43
2019-08-12 14:11:44.156250,-24.07
2019-08-12 14:11:44.171875,-24.36
2019-08-12 14:11:44.187500,-24.83
2019-08-12 14:11:44.203125,-25.15
2019-08-12 14:11:44.218750,-24.41
2019-08-12 14:11:44.234375,-21.83
2019-08-12 14:11:44.250000,-17.42
2019-08-12 14:11:44.265625,-12.09
2019-08-12 14:11:44.281250,-7.3
2019-08-12 14:11:44.296875,-4.32
2019-08-12 14:11:44.312500,-3.75
2019-08-12 14:11:44.328125,-5.29
2019-08-12 14:11:44.343750,-8.16
2019-08-12 14:11:44.359375,-11.48
2019-08-12 14:11:44.375000,-14.56
2019-08-12 14:11:44.390625,-17.02
2019-08-12 14:11:44.406250,-18.62
2019-08-12 14:11:44.421875,-19.33
2019-08-12 14:11:44.437500,-19.23
2019-08-12 14:11:44.453125,-18.56
2019-08-12 14:11:44.468750,-17.68
2019-08-12 14:11:44.484375,-16.9
2019-08-12 14:11:44.500000,-16.4
2019-08-12 14:11:44.515625,-16.22
2019-08-12 14:11:44.531250,-16.28
2019-08-12 14:11:44.546875,-16.52
2019-08-12 14:11:44.562500,-16.92
2019-08-12 14:11:44.578125,-17.42
2019-08-12 14:11:44.593750,-17.82
2019-08-12 14:11:44.609375,-17.86
2019-08-12 14:11:44.625000,-17.32
2019-08-12 14:11:44.640625,-16.26
2019-08-12 14:11:44.656250,-15.02
2019-08-12 14:11:44.671875,-14.13
2019-08-12 14:11:44.687500,-14.01
2019-08-12 14:11:44.703125,-14.74
2019-08-12 14:11:44.718750,-15.92
2019-08-12 14:11:44.734375,-16.91
2019-08-12 14:11:44.750000,-17.19
2019-08-12 14:11:44.765625,-16.57
2019-08-12 14:11:44.781250,-15.27
2019-08-12 14:11:44.796875,-13.61
2019-08-12 14:11:44.812500,-11.74
2019-08-12 14:11:44.828125,-9.36
2019-08-12 14:11:44.843750,-5.84
2019-08-12 14:11:44.859375,-0.49
2019-08-12 14:11:44.875000,6.94
2019-08-12 14:11:44.890625,16.02
2019-08-12 14:11:44.906250,25.73
2019-08-12 14:11:44.921875,34.74
2019-08-12 14:11:44.937500,41.9
2019-08-12 14:11:44.953125,46.52
2019-08-12 14:11:44.968750,48.51
2019-08-12 14:11:44.984375,48.21
2019-08-12 14:11:45.000000,46.09
2019-08-12 14:11:45.015625,42.61
2019-08-12 14:11:45.031250,38.15
2019-08-12 14:11:45.046875,33.08
2019-08-12 14:11:45.062500,27.92
2019-08-12 14:11:45.078125,23.21
2019-08-12 14:11:45.093750,19.43
2019-08-12 14:11:45.109375,16.86
2019-08-12 14:11:45.125000,15.39
2019-08-12 14:11:45.140625,14.51
2019-08-12 14:11:45.156250,13.54
2019-08-12 14:11:45.171875,11.76
2019-08-12 14:11:45.187500,8.72
2019-08-12 14:11:45.203125,4.45
2019-08-12 14:11:45.218750,-0.66
2019-08-12 14:11:45.234375,-5.9
2019-08-12 14:11:45.250000,-10.66
2019-08-12 14:11:45.265625,-14.53
2019-08-12 14:11:45.281250,-17.54
2019-08-12 14:11:45.296875,-19.93
2019-08-12 14:11:45.312500,-22.12
2019-08-12 14:11:45.328125,-24.43
2019-08-12 14:11:45.343750,-27.04
2019-08-12 14:11:45.359375,-30.02
2019-08-12 14:11:45.375000,-33.33
2019-08-12 14:11:45.390625,-36.87
2019-08-12 14:11:45.406250,-40.37
2019-08-12 14:11:45.421875,-43.26
2019-08-12 14:11:45.437500,-44.73
2019-08-12 14:11:45.453125,-43.93
2019-08-12 14:11:45.468750,-40.4
2019-08-12 14:11:45.484375,-34.32
2019-08-12 14:11:45.500000,-26.61
2019-08-12 14:11:45.515625,-18.59
2019-08-12 14:11:45.531250,-11.53
2019-08-12 14:11:45.546875,-6.25
2019-08-12 14:11:45.562500,-2.9
2019-08-12 14:11:45.578125,-1.12
2019-08-12 14:11:45.593750,-0.39
2019-08-12 14:11:45.609375,-0.35
2019-08-12 14:11:45.625000,-0.91
2019-08-12 14:11:45.640625,-2.23
2019-08-12 14:11:45.656250,-4.36
2019-08-12 14:11:45.671875,-7.13
2019-08-12 14:11:45.687500,-10.06
2019-08-12 14:11:45.703125,-12.56
2019-08-12 14:11:45.718750,-14.13
2019-08-12 14:11:45.734375,-14.6
2019-08-12 14:11:45.750000,-14.14
2019-08-12 14:11:45.765625,-13.17
2019-08-12 14:11:45.781250,-12.23
2019-08-12 14:11:45.796875,-11.67
2019-08-12 14:11:45.812500,-11.64
2019-08-12 14:11:45.828125,-12.12
2019-08-12 14:11:45.843750,-13.0
2019-08-12 14:11:45.859375,-14.2
2019-08-12 14:11:45.875000,-15.64
2019-08-12 14:11:45.890625,-17.2
2019-08-12 14:11:45.906250,-18.71
2019-08-12 14:11:45.921875,-20.0
2019-08-12 14:11:45.937500,-20.92
2019-08-12 14:11:45.953125,-21.36
2019-08-12 14:11:45.968750,-21.42
2019-08-12 14:11:45.984375,-21.3
2019-08-12 14:11:46.000000,-21.32
2019-08-12 14:11:46.015625,-21.74
2019-08-12 14:11:46.031250,-22.64
2019-08-12 14:11:46.046875,-23.82
2019-08-12 14:11:46.062500,-24.79
2019-08-12 14:11:46.078125,-24.87
2019-08-12 14:11:46.093750,-23.44
2019-08-12 14:11:46.109375,-20.21
2019-08-12 14:11:46.125000,-15.31
2019-08-12 14:11:46.140625,-9.33
2019-08-12 14:11:46.156250,-3.04
2019-08-12 14:11:46.171875,2.77
2019-08-12 14:11:46.187500,7.48
2019-08-12 14:11:46.203125,10.77
2019-08-12 14:11:46.218750,12.51
2019-08-12 14:11:46.234375,12.77
2019-08-12 14:11:46.250000,11.75
2019-08-12 14:11:46.265625,9.79
2019-08-12 14:11:46.281250,7.41
2019-08-12 14:11:46.296875,5.19
2019-08-12 14:11:46.312500,3.71
2019-08-12 14:11:46.328125,3.32
2019-08-12 14:11:46.343750,4.08
2019-08-12 14:11:46.359375,5.72
2019-08-12 14:11:46.375000,7.78
2019-08-12 14:11:46.390625,9.71
2019-08-12 14:11:46.406250,11.12
2019-08-12 14:11:46.421875,11.73
2019-08-12 14:11:46.437500,11.45
2019-08-12 14:11:46.453125,10.37
2019-08-12 14:11:46.468750,8.61
2019-08-12 14:11:46.484375,6.36
2019-08-12 14:11:46.500000,3.83
2019-08-12 14:11:46.515625,1.26
2019-08-12 14:11:46.531250,-1.13
2019-08-12 14:11:46.546875,-3.21
2019-08-12 14:11:46.562500,-4.97
2019-08-12 14:11:46.578125,-6.56
2019-08-12 14:11:46.593750,-8.13
2019-08-12 14:11:46.609375,-9.87
2019-08-12 14:11:46.625000,-11.86
2019-08-12 14:11:46.640625,-14.11
2019-08-12 14:11:46.656250,-16.54
2019-08-12 14:11:46.671875,-19.01
2019-08-12 14:11:46.687500,-21.26
2019-08-12 14:11:46.703125,-22.9
2019-08-12 14:11:46.718750,-23.47
2019-08-12 14:11:46.734375,-22.49
2019-08-12 14:11:46.750000,-19.73
2019-08-12 14:11:46.765625,-15.26
2019-08-12 14:11:46.781250,-9.61
2019-08-12 14:11:46.796875,-3.57
2019-08-12 14:11:46.812500,1.95
2019-08-12 14:11:46.828125,6.22
2019-08-12 14:11:46.843750,8.75
2019-08-12 14:11:46.859375,9.38
2019-08-12 14:11:46.875000,8.21
2019-08-12 14:11:46.890625,5.51
2019-08-12 14:11:46.906250,1.84
2019-08-12 14:11:46.921875,-2.09
2019-08-12 14:11:46.937500,-5.52
2019-08-12 14:11:46.953125,-7.78
2019-08-12 14:11:46.968750,-8.57
2019-08-12 14:11:46.984375,-8.1
2019-08-12 14:11:47.000000,-7.06
2019-08-12 14:11:47.015625,-6.41
2019-08-12 14:11:47.031250,-6.92
2019-08-12 14:11:47.046875,-8.91
2019-08-12 14:11:47.062500,-12.12
2019-08-12 14:11:47.078125,-15.87
2019-08-12 14:11:47.093750,-19.41
2019-08-12 14:11:47.109375,-22.34
2019-08-12 14:11:47.125000,-24.79
2019-08-12 14:11:47.140625,-27.35
2019-08-12 14:11:47.156250,-30.7
2019-08-12 14:11:47.171875,-35.19
2019-08-12 14:11:47.187500,-40.65
2019-08-12 14:11:47.203125,-46.36
2019-08-12 14:11:47.218750,-51.34
2019-08-12 14:11:47.234375,-54.74
2019-08-12 14:11:47.250000,-56.22
2019-08-12 14:11:47.265625,-56.11
2019-08-12 14:11:47.281250,-55.46
2019-08-12 14:11:47.296875,-55.88
2019-08-12 14:11:47.312500,-59.15
2019-08-12 14:11:47.328125,-66.52
2019-08-12 14:11:47.343750,-77.83
2019-08-12 14:11:47.359375,-90.91
2019-08-12 14:11:47.375000,-101.63
2019-08-12 14:11:47.390625,-104.75
2019-08-12 14:11:47.406250,-95.6
2019-08-12 14:11:47.421875,-71.6
2019-08-12 14:11:47.437500,-33.51
2019-08-12 14:11:47.453125,14.61
2019-08-12 14:11:47.468750,66.38
2019-08-12 14:11:47.484375,114.86
2019-08-12 14:11:47.500000,154.31
2019-08-12 14:11:47.515625,181.25
2019-08-12 14:11:47.531250,194.82
2019-08-12 14:11:47.546875,196.26
2019-08-12 14:11:47.562500,188.1
2019-08-12 14:11:47.578125,173.3
2019-08-12 14:11:47.593750,154.79
2019-08-12 14:11:47.609375,135.15
2019-08-12 14:11:47.625000,116.63
2019-08-12 14:11:47.640625,101.01
2019-08-12 14:11:47.656250,89.44
2019-08-12 14:11:47.671875,82.2
2019-08-12 14:11:47.687500,78.55
2019-08-12 14:11:47.703125,76.95
2019-08-12 14:11:47.718750,75.53
2019-08-12 14:11:47.734375,72.8
2019-08-12 14:11:47.750000,68.2
2019-08-12 14:11:47.765625,62.23
2019-08-12 14:11:47.781250,56.05
2019-08-12 14:11:47.796875,50.85
2019-08-12 14:11:47.812500,47.22
2019-08-12 14:11:47.828125,44.84
2019-08-12 14:11:47.843750,42.66
2019-08-12 14:11:47.859375,39.39
2019-08-12 14:11:47.875000,34.13
2019-08-12 14:11:47.890625,26.75
2019-08-12 14:11:47.906250,17.91
2019-08-12 14:11:47.921875,8.67
2019-08-12 14:11:47.937500,0.16
2019-08-12 14:11:47.953125,-6.76
2019-08-12 14:11:47.968750,-11.65
2019-08-12 14:11:47.984375,-14.27
2019-08-12 14:11:48.000000,-14.69
2019-08-12 14:11:48.015625,-13.09
2019-08-12 14:11:48.031250,-9.94
2019-08-12 14:11:48.046875,-5.93
2019-08-12 14:11:48.062500,-1.87
2019-08-12 14:11:48.078125,1.49
2019-08-12 14:11:48.093750,3.7
2019-08-12 14:11:48.109375,4.56
2019-08-12 14:11:48.125000,4.13
2019-08-12 14:11:48.140625,2.42
2019-08-12 14:11:48.156250,-0.49
2019-08-12 14:11:48.171875,-4.55
2019-08-12 14:11:48.187500,-9.48
2019-08-12 14:11:48.203125,-14.8
2019-08-12 14:11:48.218750,-19.79
2019-08-12 14:11:48.234375,-23.79
2019-08-12 14:11:48.250000,-26.36
2019-08-12 14:11:48.265625,-27.45
2019-08-12 14:11:48.281250,-27.38
2019-08-12 14:11:48.296875,-26.67
2019-08-12 14:11:48.312500,-25.87
2019-08-12 14:11:48.328125,-25.31
2019-08-12 14:11:48.343750,-25.1
2019-08-12 14:11:48.359375,-25.14
2019-08-12 14:11:48.375000,-25.25
2019-08-12 14:11:48.390625,-25.24
2019-08-12 14:11:48.406250,-25.04
2019-08-12 14:11:48.421875,-24.83
2019-08-12 14:11:48.437500,-24.98
2019-08-12 14:11:48.453125,-26.18
2019-08-12 14:11:48.468750,-29.18
2019-08-12 14:11:48.484375,-34.54
2019-08-12 14:11:48.500000,-42.46
2019-08-12 14:11:48.515625,-52.44
2019-08-12 14:11:48.531250,-63.29
2019-08-12 14:11:48.546875,-73.38
2019-08-12 14:11:48.562500,-81.01
2019-08-12 14:11:48.578125,-84.9
2019-08-12 14:11:48.593750,-84.42
2019-08-12 14:11:48.609375,-79.75
2019-08-12 14:11:48.625000,-71.58
2019-08-12 14:11:48.640625,-60.98
2019-08-12 14:11:48.656250,-49.03
2019-08-12 14:11:48.671875,-36.68
2019-08-12 14:11:48.687500,-24.72
2019-08-12 14:11:48.703125,-13.83
2019-08-12 14:11:48.718750,-4.54
2019-08-12 14:11:48.734375,2.75
2019-08-12 14:11:48.750000,7.82
2019-08-12 14:11:48.765625,10.74
2019-08-12 14:11:48.781250,11.84
2019-08-12 14:11:48.796875,11.58
2019-08-12 14:11:48.812500,10.48
2019-08-12 14:11:48.828125,8.98
2019-08-12 14:11:48.843750,7.37
2019-08-12 14:11:48.859375,5.82
2019-08-12 14:11:48.875000,4.35
2019-08-12 14:11:48.890625,2.99
2019-08-12 14:11:48.906250,1.68
2019-08-12 14:11:48.921875,0.35
2019-08-12 14:11:48.937500,-1.15
2019-08-12 14:11:48.953125,-2.96
2019-08-12 14:11:48.968750,-5.22
2019-08-12 14:11:48.984375,-7.89
2019-08-12 14:11:49.000000,-10.74
2019-08-12 14:11:49.015625,-13.45
2019-08-12 14:11:49.031250,-15.57
2019-08-12 14:11:49.046875,-16.89
2019-08-12 14:11:49.062500,-17.52
2019-08-12 14:11:49.078125,-17.98
2019-08-12 14:11:49.093750,-18.95
2019-08-12 14:11:49.109375,-21.12
2019-08-12 14:11:49.125000,-24.74
2019-08-12 14:11:49.140625,-29.57
2019-08-12 14:11:49.156250,-35.07
2019-08-12 14:11:49.171875,-40.58
2019-08-12 14:11:49.187500,-45.77
2019-08-12 14:11:49.203125,-50.72
2019-08-12 14:11:49.218750,-55.84
2019-08-12 14:11:49.234375,-61.41
2019-08-12 14:11:49.250000,-67.34
2019-08-12 14:11:49.265625,-73.01
2019-08-12 14:11:49.281250,-77.43
2019-08-12 14:11:49.296875,-79.8
2019-08-12 14:11:49.312500,-79.9
2019-08-12 14:11:49.328125,-78.4
2019-08-12 14:11:49.343750,-76.79
2019-08-12 14:11:49.359375,-76.96
2019-08-12 14:11:49.375000,-80.67
2019-08-12 14:11:49.390625,-88.96
2019-08-12 14:11:49.406250,-101.95
2019-08-12 14:11:49.421875,-118.66
2019-08-12 14:11:49.437500,-137.04
2019-08-12 14:11:49.453125,-154.04
2019-08-12 14:11:49.468750,-165.97
2019-08-12 14:11:49.484375,-169.2
2019-08-12 14:11:49.500000,-161.28
2019-08-12 14:11:49.515625,-142.18
2019-08-12 14:11:49.531250,-114.82
2019-08-12 14:11:49.546875,-84.48
2019-08-12 14:11:49.562500,-56.8
2019-08-12 14:11:49.578125,-35.23
2019-08-12 14:11:49.593750,-19.15
2019-08-12 14:11:49.609375,-3.94
2019-08-12 14:11:49.625000,16.86
2019-08-12 14:11:49.640625,48.47
2019-08-12 14:11:49.656250,92.44
2019-08-12 14:11:49.671875,146.03
2019-08-12 14:11:49.687500,203.66
2019-08-12 14:11:49.703125,259.39
2019-08-12 14:11:49.718750,308.86
2019-08-12 14:11:49.734375,349.87
2019-08-12 14:11:49.750000,381.69
2019-08-12 14:11:49.765625,403.77
2019-08-12 14:11:49.781250,415.22
2019-08-12 14:11:49.796875,414.88
2019-08-12 14:11:49.812500,402.14
2019-08-12 14:11:49.828125,377.6
2019-08-12 14:11:49.843750,343.29
2019-08-12 14:11:49.859375,302.16
2019-08-12 14:11:49.875000,257.2
2019-08-12 14:11:49.890625,211.16
2019-08-12 14:11:49.906250,166.04
2019-08-12 14:11:49.921875,123.41
2019-08-12 14:11:49.937500,84.54
2019-08-12 14:11:49.953125,50.34
2019-08-12 14:11:49.968750,21.06
2019-08-12 14:11:49.984375,-4.26
2019-08-12 14:11:50.000000,-27.72
2019-08-12 14:11:50.015625,-51.69
2019-08-12 14:11:50.031250,-77.19
2019-08-12 14:11:50.046875,-102.64
2019-08-12 14:11:50.062500,-123.6
2019-08-12 14:11:50.078125,-134.33
2019-08-12 14:11:50.093750,-130.32
2019-08-12 14:11:50.109375,-110.22
2019-08-12 14:11:50.125000,-76.25
2019-08-12 14:11:50.140625,-32.64
2019-08-12 14:11:50.156250,16.42
2019-08-12 14:11:50.171875,67.9
2019-08-12 14:11:50.187500,119.22
2019-08-12 14:11:50.203125,166.65
2019-08-12 14:11:50.218750,204.41
2019-08-12 14:11:50.234375,225.74
2019-08-12 14:11:50.250000,225.61
2019-08-12 14:11:50.265625,203.47
2019-08-12 14:11:50.281250,163.99
2019-08-12 14:11:50.296875,115.27
2019-08-12 14:11:50.312500,65.5
2019-08-12 14:11:50.328125,19.91
2019-08-12 14:11:50.343750,-20.13
2019-08-12 14:11:50.359375,-55.91
2019-08-12 14:11:50.375000,-89.53
2019-08-12 14:11:50.390625,-122.11
2019-08-12 14:11:50.406250,-153.52
2019-08-12 14:11:50.421875,-182.66
2019-08-12 14:11:50.437500,-207.79
2019-08-12 14:11:50.453125,-226.73
2019-08-12 14:11:50.468750,-236.94
2019-08-12 14:11:50.484375,-236.19
2019-08-12 14:11:50.500000,-223.72
2019-08-12 14:11:50.515625,-201.23
2019-08-12 14:11:50.531250,-172.89
2019-08-12 14:11:50.546875,-144.26
2019-08-12 14:11:50.562500,-120.46
2019-08-12 14:11:50.578125,-104.59
2019-08-12 14:11:50.593750,-97.15
2019-08-12 14:11:50.609375,-96.74
2019-08-12 14:11:50.625000,-101.12
2019-08-12 14:11:50.640625,-108.25
2019-08-12 14:11:50.656250,-116.45
2019-08-12 14:11:50.671875,-124.07
2019-08-12 14:11:50.687500,-129.31
2019-08-12 14:11:50.703125,-130.41
2019-08-12 14:11:50.718750,-126.2
2019-08-12 14:11:50.734375,-116.72
2019-08-12 14:11:50.750000,-103.37
2019-08-12 14:11:50.765625,-88.39
2019-08-12 14:11:50.781250,-74.24
2019-08-12 14:11:50.796875,-62.75
2019-08-12 14:11:50.812500,-54.72
2019-08-12 14:11:50.828125,-49.96
2019-08-12 14:11:50.843750,-47.63
2019-08-12 14:11:50.859375,-46.65
2019-08-12 14:11:50.875000,-46.11
2019-08-12 14:11:50.890625,-45.54
2019-08-12 14:11:50.906250,-44.86
2019-08-12 14:11:50.921875,-44.34
2019-08-12 14:11:50.937500,-44.31
2019-08-12 14:11:50.953125,-44.89
2019-08-12 14:11:50.968750,-45.89
2019-08-12 14:11:50.984375,-46.9
2019-08-12 14:11:51.000000,-47.48
2019-08-12 14:11:51.015625,-47.4
2019-08-12 14:11:51.031250,-46.8
2019-08-12 14:11:51.046875,-46.12
2019-08-12 14:11:51.062500,-45.82
2019-08-12 14:11:51.078125,-46.05
2019-08-12 14:11:51.093750,-46.49
2019-08-12 14:11:51.109375,-46.43
2019-08-12 14:11:51.125000,-45.1
